,EMG1,EMG2,EMG3,EMG4,EMG5,EMG6,EMG7,EMG8,EMG9,EMG10,EMG11,EMG12,EMG13,EMG14,EMG15,EMG16
0,5.851235361616883e-07,5.4545367029465495e-08,2.0085089441462844e-07,6.144473529704205e-07,-5.2713848223458934e-08,1.0681433467880666e-07,3.5261774096972884e-07,-8.022159265204226e-08,1.1477389805707653e-06,-2.581555630046031e-07,6.064687217852718e-09,6.082247999764584e-07,4.3678455229905485e-07,8.085332496929043e-07,-9.457121070991324e-09,-1.7579800030284419e-07
1,8.213177731985072e-07,4.0936895919422503e-07,4.104484433710786e-07,7.335734567329991e-07,2.348066870936398e-07,2.865147465718289e-07,5.052446170266761e-07,3.469049783077961e-07,1.2331437913611361e-06,-7.327599341812323e-08,1.13779587785702e-07,6.781225375578655e-07,6.838369941663385e-07,5.406651838078961e-06,2.405139046074303e-07,-4.787083248248285e-08
2,1.0473966890912459e-06,7.51695109174981e-07,6.128073196638587e-07,8.51045956324773e-07,5.130461605289306e-07,4.6241943909463143e-07,6.528210410978418e-07,7.689118479374891e-07,1.3256888015866228e-06,1.0828513705410398e-07,2.1860534670997426e-07,7.516642735972616e-07,9.250884615374529e-07,9.810569322508681e-06,4.912878310027589e-07,7.653126791506416e-08
3,1.2601148870625806e-06,1.0759726263188604e-06,8.065180454503973e-07,9.63626683285667e-07,7.792804567924743e-07,6.300012479549988e-07,7.948418126307858e-07,1.1816546923030652e-06,1.4243139781884576e-06,2.86051091068475e-07,3.1948418369355633e-07,8.277002359045157e-07,1.1559702076367715e-06,1.3929068407316058e-05,7.401956505534252e-07,1.9665448518950517e-07
4,1.4565523886576116e-06,1.3769708550445037e-06,9.901786465861687e-07,1.0691383291457908e-06,1.0308004694206195e-06,7.856245948285534e-07,9.308767758234378e-07,1.5821802849630478e-06,1.527939826226867e-06,4.5957649057416125e-07,4.154267281136537e-07,9.049844516110401e-07,1.3726144841698754e-06,1.767652568216392e-05,9.848375420201493e-07,3.118864342224243e-07
5,1.634472988966928e-06,1.6502161914331789e-06,1.1624471102669584e-06,1.1666945746290524e-06,1.2649980543900226e-06,9.271163339347479e-07,1.060490623286156e-06,1.9688130743320758e-06,1.6356589812073592e-06,6.284096187677766e-07,5.055894767811215e-07,9.822964376045191e-07,1.572024679940107e-06,2.0980654665151214e-05,1.223173680227539e-06,4.217560639597151e-07
6,1.792603515529306e-06,1.8925012688844634e-06,1.322062604061127e-06,1.2564513332382804e-06,1.479651981148782e-06,1.053907646650053e-06,1.183181732181503e-06,2.3408341210852807e-06,1.7468327594660878e-06,7.920770829136691e-07,5.893323098547692e-07,1.0586352478039249e-06,1.7521983271308974e-06,2.3791348046028172e-05,1.4536457503097715e-06,5.258692128043211e-07
7,1.9305930549440506e-06,2.1022059609068987e-06,1.4678678473177512e-06,1.339063040365036e-06,1.6732766915880236e-06,1.1666014239487613e-06,1.2983588638249983e-06,2.697939392036699e-06,1.8609373801796905e-06,9.500962404609798e-07,6.661703781363107e-07,1.1333127494472544e-06,1.912200472649044e-06,2.608635867764255e-05,1.6753530613528805e-06,6.238539969165092e-07
8,2.0486604567141467e-06,2.2793046400842165e-06,1.5989876996404166e-06,1.4152203839608271e-06,1.8453115783445033e-06,1.2663067975945945e-06,1.4053743102746385e-06,3.0398044733913573e-06,1.9773426745451696e-06,1.1020071721334839e-06,7.356838579817904e-07,1.2058333428559962e-06,2.0520241257179186e-06,2.7871222178755114e-05,1.8881692673693322e-06,7.153846797285267e-07
9,2.1472668365755684e-06,2.425137865364125e-06,1.7151083749485138e-06,1.4854497400946746e-06,1.996131437721628e-06,1.3541664611406889e-06,1.5036878350673572e-06,3.3660272313069625e-06,2.095212938452024e-06,1.247433252819758e-06,7.975072428559842e-07,1.275690842992416e-06,2.172165589148562e-06,2.9173992435244973e-05,2.0926582662204826e-06,8.002771881403347e-07
10,2.2271024918480986e-06,2.5420214484986494e-06,1.8166101189341646e-06,1.5501144455840538e-06,2.1269515001753057e-06,1.4312139340603296e-06,1.5930693665154683e-06,3.6763785360400034e-06,2.2134812853473867e-06,1.386178658314901e-06,8.51402852857522e-07,1.342254569418194e-06,2.273202068984574e-06,3.003748072845796e-05,2.2898166178583194e-06,8.786001924268737e-07
11,2.2891787541376774e-06,2.6327311227186137e-06,1.9044481498016447e-06,1.6095298275378512e-06,2.2396191050608973e-06,1.4984463124895378e-06,1.673606973118011e-06,3.970924733548869e-06,2.330922971114604e-06,1.518280061029203e-06,8.973580749599984e-07,1.4047713380583272e-06,2.355643411292171e-06,3.0511745294526838e-05,2.4807905359217274e-06,9.50730491038724e-07
12,2.3347001513805457e-06,2.7000774388879297e-06,1.979868542690442e-06,1.6640715333876218e-06,2.3363253069544398e-06,1.5569426283048397e-06,1.7455880584579646e-06,4.249755105449685e-06,2.4464366577592938e-06,1.6438904816233916e-06,9.356417791397999e-07,1.4624190435107057e-06,2.420002683393069e-06,3.0648252843062014e-05,2.6666578572378762e-06,1.0173002374198227e-06
13,2.364881994214958e-06,2.7467518965682466e-06,2.0441301245550633e-06,1.7141389269354498e-06,2.419352738682905e-06,1.6079001478822885e-06,1.809530401393706e-06,4.5126027598300865e-06,2.559346141250307e-06,1.7630774572514574e-06,9.667585551680504e-07,1.5143110231705144e-06,2.466921159132845e-06,3.049588382419892e-05,2.848260616662603e-06,1.0790504943519127e-06
14,2.3809989278717665e-06,2.775374647238825e-06,2.098426376589108e-06,1.7600362741274363e-06,2.4909364565905178e-06,1.6525469178661171e-06,1.866273801698683e-06,4.758679600801196e-06,2.6693754985461013e-06,1.875747933493103e-06,9.913409969160574e-07,1.5594292464014395e-06,2.4972035141342113e-06,3.009892162891241e-05,3.026068888165206e-06,1.1366628585946027e-06
15,2.3845159820345754e-06,2.788621793590753e-06,2.1440014469367275e-06,1.8019495156695766e-06,2.5532442508387703e-06,1.6920329485593106e-06,1.916868694819322e-06,4.986689159142596e-06,2.7762786004436914e-06,1.9817319273121514e-06,1.0101059413470787e-06,1.5965967925834214e-06,2.51185891168245e-06,2.9497251548126285e-05,3.200099161041041e-06,1.1906395906955355e-06
16,2.377075257555011e-06,2.7892639738858455e-06,2.1821905427523192e-06,1.8400128950102426e-06,2.608391441124821e-06,1.7274538993132746e-06,1.9623883342352264e-06,5.195062386354952e-06,2.8795060752972106e-06,2.0809222637381505e-06,1.0238737381466105e-06,1.6246280048990844e-06,2.512254260897306e-06,2.8727851508951245e-05,3.3698810227588146e-06,1.2412654422386777e-06
17,2.3604450488526647e-06,2.779994931327213e-06,2.2142583972875845e-06,1.8743352709199992e-06,2.6583573438115518e-06,1.7599818656956623e-06,2.0038689867610976e-06,5.382477989509579e-06,2.9783026020303605e-06,2.1734514118923933e-06,1.033530291791778e-06,1.6426576804160814e-06,2.500060301568862e-06,2.782594933297878e-05,3.5344869466547015e-06,1.2886489751791135e-06
18,2.336560366096874e-06,2.7631766573242192e-06,2.2412119729555616e-06,1.9049578782737918e-06,2.704829846469117e-06,1.7909165256462368e-06,2.0422487897312698e-06,5.548343875426486e-06,3.0722222264711137e-06,2.259826491166577e-06,1.0399416465181486e-06,1.6504532384491175e-06,2.4769258259767653e-06,2.6825151064741887e-05,3.6927111726769162e-06,1.3327993576674154e-06
19,2.3075136160297175e-06,2.740665845424611e-06,2.2637374042984247e-06,1.9318155459445474e-06,2.7491034471237354e-06,1.821577072100743e-06,2.078215691089389e-06,5.692957850816386e-06,3.1616117594701384e-06,2.3408246549160216e-06,1.0439020332780379e-06,1.6485469548963125e-06,2.4443183244232454e-06,2.5756796441169056e-05,3.84334053792655e-06,1.3736770974026724e-06
20,2.275365651745497e-06,2.713776261361803e-06,2.282265452543299e-06,1.954773276632604e-06,2.792033896314311e-06,1.8531345272263427e-06,2.112123888701091e-06,5.817463833874792e-06,3.247590960993329e-06,2.417207461980323e-06,1.0460986556642042e-06,1.6381583142208308e-06,2.403649998888649e-06,2.4648932853286298e-05,3.9852668051363295e-06,1.411234157124107e-06
21,2.241919182333425e-06,2.683365555804157e-06,2.2970902147235435e-06,1.973769049934831e-06,2.834050578005189e-06,1.8864878640381147e-06,2.144068723779239e-06,5.923778916300385e-06,3.3315273160976754e-06,2.4895468472201835e-06,1.0471101979862277e-06,1.6209217137284603e-06,2.3563672149687476e-06,2.3525338863361154e-05,4.117302329205168e-06,1.4455083207206686e-06
22,2.2086094600269783e-06,2.6499265831471485e-06,2.308412953648372e-06,1.98901848828135e-06,2.8752280155825042e-06,1.9222035275104066e-06,2.174036680802555e-06,6.014484694928424e-06,3.4144697599321765e-06,2.5582985677909925e-06,1.047478285304976e-06,1.5985781840302171e-06,2.3038419295608483e-06,2.240504460346201e-05,4.237854198529095e-06,1.4767476086856136e-06
23,2.176496215577508e-06,2.613564270439241e-06,2.3163079921472193e-06,2.0011483198334608e-06,2.9152992036380166e-06,1.9605027117350276e-06,2.202047236347275e-06,6.092613770549358e-06,3.496923645734118e-06,2.6239486057989473e-06,1.0477682653897062e-06,1.5728072373747993e-06,2.2472980057025053e-06,2.1302432394642498e-05,4.344743037398685e-06,1.5054428645022392e-06
24,2.146321832234049e-06,2.573977642276371e-06,2.3207537609600367e-06,2.0111244017629073e-06,2.9536334525613556e-06,2.0012963730343956e-06,2.228214095459279e-06,6.161335031235218e-06,3.578879872173662e-06,2.686939406586046e-06,1.0485390965425188e-06,1.5451344064243789e-06,2.1878944407276813e-06,2.0227627137702248e-05,4.4352554827776844e-06,1.5321898172783523e-06
25,2.1185741125797217e-06,2.5306970820859476e-06,2.3217392188155935e-06,2.01997970826034e-06,2.9893000652319083e-06,2.0442990303000688e-06,2.2526446196852785e-06,6.2236139510354664e-06,3.6597922513075463e-06,2.747429884844044e-06,1.0502715924257486e-06,1.5168268835364732e-06,2.1267394624353505e-06,1.9186971238091033e-05,4.506310497670394e-06,1.5574771772549485e-06
26,2.093464535086477e-06,2.4835179977316632e-06,2.3192698901468774e-06,2.0285263937802733e-06,3.0211267876557433e-06,2.089158733879124e-06,2.2752596517882204e-06,6.281900784160354e-06,3.7384656550577133e-06,2.8052049366201784e-06,1.0533464582532674e-06,1.4888528998254251e-06,2.0647844376703998e-06,1.818362021326775e-05,4.554767296947707e-06,1.5815647924039506e-06
27,2.0708772336217174e-06,2.4327302353420053e-06,2.3132191289891275e-06,2.0372725826685096e-06,3.047661448148674e-06,2.1354589316579984e-06,2.2957124899732165e-06,6.337835344547609e-06,3.8131528164847728e-06,2.8598013432502076e-06,1.0580720938349297e-06,1.4619222436897947e-06,2.0028125093405226e-06,1.7218367253885614e-05,4.578015077212141e-06,1.6044526073065973e-06
28,2.050443946572031e-06,2.378935348916008e-06,2.303242186102296e-06,2.0465847794424184e-06,3.0671262040340893e-06,2.182619045454827e-06,2.3134325109569483e-06,6.392037270364422e-06,3.882033691029962e-06,2.910661555322902e-06,1.0646835182548448e-06,1.4365110772715143e-06,1.941596962954766e-06,1.629087106871118e-05,4.574667323374526e-06,1.625840746736839e-06
29,2.031798963710278e-06,2.3227102850081257e-06,2.2889461251394514e-06,2.0568853386339653e-06,3.0774768397902336e-06,2.2298018988584324e-06,2.3277605393917346e-06,6.444135473999213e-06,3.943803305666213e-06,2.9571665936443266e-06,1.0733102783219112e-06,1.4128650778474695e-06,1.8820485134815309e-06,1.540131994669444e-05,4.544818560708268e-06,1.64509529785058e-06
30,2.014898999060488e-06,2.2644855689591295e-06,2.2701984089235243e-06,2.0686520767774555e-06,3.0766680804925157e-06,2.2758291966401163e-06,2.3382098560777065e-06,6.4930100700380096e-06,3.997961484779088e-06,2.9986484578441893e-06,1.0839722946486523e-06,1.3910536941736e-06,1.8251547256534587e-06,1.4551937078582679e-05,4.489591871097421e-06,1.6613273085298672e-06
31,2.0001881084000507e-06,2.2046490303932357e-06,2.2472779915621355e-06,2.0822600763406186e-06,3.063135013285951e-06,2.3191617997401617e-06,2.344792237347453e-06,6.537104654189108e-06,4.0447072329594024e-06,3.034560315056741e-06,1.096602673700459e-06,1.3710325457398309e-06,1.7717988676874125e-06,1.3747320958408255e-05,4.410577534481743e-06,1.673619228302103e-06
32,1.988473340968019e-06,2.1436019064286745e-06,2.2207211399723293e-06,2.0978656773959046e-06,3.0362459250557736e-06,2.358107766898288e-06,2.3481599294473757e-06,6.574871627682209e-06,4.084607821464603e-06,3.064700846089412e-06,1.1110722550005509e-06,1.3526312043239764e-06,1.7226760426042277e-06,1.2993226315089311e-05,4.3098899340433615e-06,1.6812976397966308e-06
33,1.9806430981658342e-06,2.0817290824227145e-06,2.1910187103134045e-06,2.1154244183064417e-06,2.996422170232994e-06,2.391280714275435e-06,2.3493895730301778e-06,6.6054261829662365e-06,4.118206271619486e-06,3.089225972015656e-06,1.1271815058427285e-06,1.3355525901884967e-06,1.6783094341395046e-06,1.2294590019387593e-05,4.190568159960092e-06,1.6841289678236428e-06
34,1.977492862521595e-06,2.019498050197966e-06,2.158448829780284e-06,2.1348423066128256e-06,2.9449199034133066e-06,2.418019167105518e-06,2.349614680495659e-06,6.6290946411600885e-06,4.145656107691381e-06,3.1083932810227194e-06,1.1446033705837422e-06,1.3195004483088538e-06,1.6390535951810747e-06,1.1654076098289868e-05,4.056602924050485e-06,1.6824046942296398e-06
35,1.979723864284427e-06,1.957635376018672e-06,2.123164298384958e-06,2.156142128210424e-06,2.8834695293490376e-06,2.4383940179616255e-06,2.3497981312557536e-06,6.647404772634719e-06,4.166502055328682e-06,3.1222917728617975e-06,1.162869529007042e-06,1.3043535104065657e-06,1.605079778311269e-06,1.1071657272599814e-05,3.912469719803961e-06,1.6769302944200246e-06
36,1.987939546206769e-06,1.8970988161320465e-06,2.085419266743595e-06,2.1794466746975646e-06,2.8138842895773135e-06,2.4528298219400004e-06,2.350609064636435e-06,6.662529205366574e-06,4.179797648582113e-06,3.1308236311274827e-06,1.1814724727549633e-06,1.2902506564345973e-06,1.5763786927080366e-06,1.054504596842932e-05,3.762514129321197e-06,1.6689051013779597e-06
37,2.0025250909063935e-06,1.8388461545105707e-06,2.0457188941260515e-06,2.2048466284964246e-06,2.7377535078766197e-06,2.4618149458947503e-06,2.3523056563764232e-06,6.676661047934978e-06,4.18463346240781e-06,3.13388908659925e-06,1.1999760508983677e-06,1.2776006525998123e-06,1.5527951757101596e-06,1.0070912505375538e-05,3.610500914783859e-06,1.65969270558921e-06
38,2.0235086926225476e-06,1.783664928960889e-06,2.0047474327599137e-06,2.23242490927399e-06,2.6563857060135446e-06,2.4659529117953882e-06,2.354696156447997e-06,6.691715884453067e-06,4.18078528049907e-06,3.1315192771384466e-06,1.2179965298489545e-06,1.2670772701242968e-06,1.5341362361770117e-06,9.64660358507299e-06,3.4594210489174154e-06,1.6505868506620046e-06
39,2.050530021539411e-06,1.7321461547879067e-06,1.963143117488532e-06,2.262437312465305e-06,2.570995462066193e-06,2.466034282560478e-06,2.3572269143221665e-06,6.709349622988631e-06,4.168935248259657e-06,3.123796298907081e-06,1.2350803666252236e-06,1.2595682723381217e-06,1.5202936762546008e-06,9.2712160350827e-06,3.311483849073736e-06,1.6426837791193597e-06
40,2.0828846794889417e-06,1.6846830986142196e-06,1.9213576358523287e-06,2.2953935322313915e-06,2.4829619146041605e-06,2.462856592043208e-06,2.359163478299103e-06,6.7310548143288915e-06,4.1502792796126e-06,3.110659491615323e-06,1.2506257222863285e-06,1.2560390312437174e-06,1.511224805871017e-06,8.9451899300044e-06,3.168209470193273e-06,1.6368286202935236e-06
41,2.1195619999356787e-06,1.6415129290564368e-06,1.8797142214257183e-06,2.331927954638637e-06,2.3939838633010875e-06,2.4569723090840818e-06,2.359825136373725e-06,6.758184273925457e-06,4.126102438653265e-06,3.0918831667741548e-06,1.2639616803264628e-06,1.2573679844419457e-06,1.5068224773822764e-06,8.669397266140222e-06,3.030608362517815e-06,1.6335767100043367e-06
42,2.1593295691046177e-06,1.602887837255649e-06,1.8385269479449083e-06,2.372579999042083e-06,2.306008519658583e-06,2.448580246856186e-06,2.358829049678276e-06,6.791931100016121e-06,4.09783675093737e-06,3.067249845034868e-06,1.2745639451578908e-06,1.2642460644253737e-06,1.5068664861713765e-06,8.445145342913074e-06,2.8994569925776246e-06,1.6331899906204432e-06
43,2.2009175265734597e-06,1.569225572238537e-06,1.7981410168348913e-06,2.417618612606517e-06,2.2209638629904238e-06,2.43756026935464e-06,2.356236835636685e-06,6.833325375262829e-06,4.067230113979071e-06,3.036600280614271e-06,1.2822478409016144e-06,1.2771623143695932e-06,1.5110674665923034e-06,8.274778424943323e-06,2.775565027590194e-06,1.6356745069360217e-06
44,2.2431426687747967e-06,1.5410461743592675e-06,1.7589215936481474e-06,2.4669625175028036e-06,2.1405095664261595e-06,2.4237004928749675e-06,2.3524584388827038e-06,6.883210982319739e-06,4.036188719248812e-06,2.9997184227485213e-06,1.2871733369357346e-06,1.2964174710039977e-06,1.5190781181323271e-06,8.161817786488615e-06,2.6598444565798646e-06,1.6408085523304063e-06
45,2.2848193384069686e-06,1.5187776114124807e-06,1.7212822741678165e-06,2.5201985871438568e-06,2.0659515029426027e-06,2.407120724596776e-06,2.3479391766990154e-06,6.9421512989678295e-06,4.006504291983027e-06,2.95635860739235e-06,1.2896622782408518e-06,1.3221116005650514e-06,1.530526802164655e-06,8.110539156203812e-06,2.553145320903891e-06,1.6481336450247938e-06
46,2.324608434376884e-06,1.5026234406340979e-06,1.6857605628359969e-06,2.576616052315349e-06,1.9982650707338593e-06,2.3885203713142043e-06,2.3428863605430914e-06,7.0103220193146964e-06,3.979691313334621e-06,2.9063974818019766e-06,1.2899691635240406e-06,1.354108269958672e-06,1.5451170777434472e-06,8.125381021598412e-06,2.4560489081363374e-06,1.6569447610257437e-06
47,2.361037270713373e-06,1.4925530257073672e-06,1.6530288384702942e-06,2.635171138080857e-06,1.938152752855436e-06,2.368990726340941e-06,2.3372700183938436e-06,7.087486120368819e-06,3.956846635524871e-06,2.8498126084783197e-06,1.2881327358843166e-06,1.3919978212754054e-06,1.5626116671949058e-06,8.210359011023796e-06,2.368811599166708e-06,1.666356575207958e-06
48,2.3926217593513247e-06,1.4883547675171678e-06,1.6237673897359662e-06,2.6944479078117953e-06,1.886086371209594e-06,2.3497188316310797e-06,2.3310817174093533e-06,7.173008883692999e-06,3.9386239890166005e-06,2.786607513610965e-06,1.2839719050081637e-06,1.4350913217125919e-06,1.5826724669204376e-06,8.368561458799124e-06,2.2914363455218564e-06,1.6755342605528276e-06
49,2.4178785293846407e-06,1.489664064683387e-06,1.5985131802455652e-06,2.7527057417509484e-06,1.8423073035374575e-06,2.3318894120432823e-06,2.324555465683045e-06,7.265715894784934e-06,3.925516385368069e-06,2.716988700338538e-06,1.277219843005269e-06,1.4825052352312718e-06,1.604744818306304e-06,8.60175112364753e-06,2.223706307494726e-06,1.6840374878984413e-06
50,2.4352897267137303e-06,1.4959822285414496e-06,1.577604772983014e-06,2.8080237503137863e-06,1.806841605323922e-06,2.3167171433630546e-06,2.3180914702631673e-06,7.363538365637679e-06,3.918203387052794e-06,2.6416305623187922e-06,1.2676862441415202e-06,1.5333480874526382e-06,1.6280382782104482e-06,8.910038265266917e-06,2.1651145333253893e-06,1.6920124319726773e-06
51,2.4434919438993932e-06,1.5067718090966814e-06,1.5611887664197676e-06,2.8585819363473874e-06,1.7795486054862586e-06,2.3055186527494345e-06,2.3120520758941625e-06,7.4632743100827945e-06,3.917532942199329e-06,2.561714886867843e-06,1.2552945140299264e-06,1.5868852264664066e-06,1.651547450918975e-06,9.291723928984766e-06,2.1148207818295595e-06,1.7000522759372418e-06
52,2.4417179283211086e-06,1.5215518188401801e-06,1.549273740086411e-06,2.9030622614829913e-06,1.760125299329766e-06,2.2997169281228843e-06,2.3066787476133484e-06,7.560726347847226e-06,3.924144484871525e-06,2.478719241104429e-06,1.2399843271538466e-06,1.6425471610310967e-06,1.6741407528044592e-06,9.743532173610531e-06,2.0718043702992802e-06,1.708871442326252e-06
53,2.4301164009445235e-06,1.5398563503662942e-06,1.5418350868898456e-06,2.940946552721038e-06,1.74804908338695e-06,2.3007321642179217e-06,2.3020397291962492e-06,7.65104439911602e-06,3.938200470456168e-06,2.3940951208157336e-06,1.221653358880889e-06,1.6997979930646829e-06,1.694770409720078e-06,1.026123053739004e-05,2.0351547289061526e-06,1.7190538606344706e-06
54,2.4096061908092747e-06,1.5611601475385598e-06,1.5388500450900874e-06,2.9724617345119385e-06,1.7425731674934245e-06,2.3098754860684575e-06,2.2979245488641597e-06,7.729122410669173e-06,3.959568100458128e-06,2.3090066136867828e-06,1.2002502537664674e-06,1.7579640746477975e-06,1.712686455786755e-06,1.0840240597153135e-05,2.004213903318983e-06,1.730938243048911e-06
55,2.3814688446320607e-06,1.584943878479538e-06,1.5402276258979545e-06,2.99817745951079e-06,1.7428644168633357e-06,2.328252769129278e-06,2.293770153861042e-06,7.790074598074484e-06,3.988207683005122e-06,2.2242341241530008e-06,1.1759165819408064e-06,1.8160872825467652e-06,1.7274302373362247e-06,1.1475802547105723e-05,1.9784224721167755e-06,1.744557921061694e-06
56,2.347137021652302e-06,1.610809298210739e-06,1.5457688093821124e-06,3.018508134645502e-06,1.7482192288826087e-06,2.35665382079085e-06,2.2887043237359225e-06,7.829728621137165e-06,4.024331897877233e-06,2.1402799537769474e-06,1.1490067981422573e-06,1.8728316945152625e-06,1.738630569228879e-06,1.216268735433175e-05,1.9570661247235917e-06,1.7596439531059193e-06
57,2.3082125729904077e-06,1.6384711130558356e-06,1.5551884225914654e-06,3.0333744152976957e-06,1.7582560454584996e-06,2.3954979658069563e-06,2.281786427279131e-06,7.84507238178201e-06,4.068294098773678e-06,2.0576324485431704e-06,1.1199599972936669e-06,1.9264726594055417e-06,1.7458788587424759e-06,1.2894814702857107e-05,1.939194485152576e-06,1.7757643849921547e-06
58,2.266475462461731e-06,1.6676819946858276e-06,1.5681371497104928e-06,3.042149517645285e-06,1.773030421201807e-06,2.444859238671632e-06,2.2724026701943197e-06,7.83461265373932e-06,4.120375881768938e-06,1.9769608689536886e-06,1.0891709055686597e-06,1.9750256442460567e-06,1.748811656120452e-06,1.3665044347721303e-05,1.92375776983247e-06,1.7925608261881662e-06
59,2.2238337876638642e-06,1.6982522361045589e-06,1.5842687044498105e-06,3.043913184154949e-06,1.7929841947447682e-06,2.5045267963757465e-06,2.2606135157217987e-06,7.798486430374196e-06,4.1805410089467725e-06,1.899046233048624e-06,1.0569573327375485e-06,2.016557743016069e-06,1.7473177719913282e-06,1.4465083890493457e-05,1.909821133984509e-06,1.8099289466255567e-06
60,2.18223685962362e-06,1.7301554085178668e-06,1.6033442003007825e-06,3.037896248379005e-06,1.8187018593042103e-06,2.5740290202977444e-06,2.2472691336735337e-06,7.738222010312189e-06,4.248278950247517e-06,1.8245619207558973e-06,1.0235780347453248e-06,2.0495791092020514e-06,1.7417846278467827e-06,1.528538536385521e-05,1.8967256583315686e-06,1.828045921169336e-06
61,2.1435111577216975e-06,1.7635649014492127e-06,1.6252269279713343e-06,3.023864638748076e-06,1.8506582367541279e-06,2.652635743329392e-06,2.2338125891844943e-06,7.656323703821612e-06,4.322650120018346e-06,1.7539753450123765e-06,9.89269165896694e-07,2.0732604635453736e-06,1.7332391813164252e-06,1.611492695801237e-05,1.88412006435369e-06,1.8472856907063576e-06
62,2.1091636182934758e-06,1.7987423673943318e-06,1.6497616019571055e-06,3.00227516995257e-06,1.8891257703264913e-06,2.739401090991596e-06,2.221856552828526e-06,7.555960281500209e-06,4.402411699159166e-06,1.6876544387014532e-06,9.542768432027785e-07,2.087301716046821e-06,1.7232062353020133e-06,1.6940836851920518e-05,1.8718360931141722e-06,1.8680934906986726e-06
63,2.08025359041338e-06,1.8358585130434522e-06,1.6766814161064126e-06,2.9742391356238745e-06,1.934220612221498e-06,2.8331786252587195e-06,2.2127909779902683e-06,7.440843230332206e-06,4.486289790491783e-06,1.6259790121456544e-06,9.188599115223956e-07,2.091610494898314e-06,1.7133775831948073e-06,1.774857341688209e-05,1.8597622199257283e-06,1.8908452138692567e-06
64,2.0573487219603048e-06,1.8748680479776743e-06,1.705573794746222e-06,2.941355843651489e-06,1.9859922985213153e-06,2.9326146922982585e-06,2.2076045882153924e-06,7.315172997428456e-06,4.5737370792346276e-06,1.5692879913926621e-06,8.833019682416398e-07,2.0861706088244796e-06,1.7053643844144132e-06,1.8523636695171404e-05,1.8478820057678955e-06,1.9157203982054866e-06
65,2.0405268956343794e-06,1.9154733434662396e-06,1.7358739099499732e-06,2.905399856821282e-06,2.044426225580438e-06,3.0362394689416595e-06,2.2068630694147295e-06,7.183472141663593e-06,4.665919739726126e-06,1.517741612254018e-06,8.479216835617684e-07,2.071208824631605e-06,1.7005897923840395e-06,1.9254214814980676e-05,1.836347824883391e-06,1.9426331097034727e-06
66,2.02942719056256e-06,1.957125769271556e-06,1.7669261784032928e-06,2.8679272016569312e-06,2.1093424756192974e-06,3.1425286241040902e-06,2.21073087962239e-06,7.050160279993862e-06,4.7660648927250146e-06,1.4712431553231619e-06,8.130332782568309e-07,2.047379190745705e-06,1.7002318263250638e-06,1.993299369484023e-05,1.8254378002845559e-06,1.9712221985995296e-06
67,2.0233804280236065e-06,1.999010795544569e-06,1.7981155469288543e-06,2.8299959991636353e-06,2.1803158161946125e-06,3.249743652518238e-06,2.219061583495079e-06,6.918955084029245e-06,4.878828338354329e-06,1.4295104786412282e-06,7.789016640151097e-07,2.0157572648141603e-06,1.7051865842233336e-06,2.0557190005900516e-05,1.8154548956559563e-06,2.0009036575098336e-06
68,2.021585344705499e-06,2.0400488053556656e-06,1.82900600369729e-06,2.792117119843591e-06,2.2566282634457327e-06,3.355710686297509e-06,2.2315935168097852e-06,6.792468241718289e-06,5.009210938150137e-06,1.3923176852251478e-06,7.457277739452418e-07,1.97771215840342e-06,1.71603097550989e-06,2.112703024835535e-05,1.8066269358729388e-06,2.030992846354017e-06
69,2.02321265224458e-06,2.0790478165386386e-06,1.8594489576331726e-06,2.7543808718095848e-06,2.337223610582132e-06,3.4578375443627016e-06,2.248108090558029e-06,6.672145340441578e-06,5.161680865609569e-06,1.359769255840643e-06,7.136329142200924e-07,1.934778026828782e-06,1.7329910193299635e-06,2.1643316023207646e-05,1.7990516961404315e-06,2.060776727422241e-06
70,2.027360589295925e-06,2.115029591472352e-06,1.889627582359901e-06,2.7166679390749493e-06,2.4207033720547026e-06,3.5533605864807955e-06,2.2684008846258875e-06,6.558284485719933e-06,5.3397557800154365e-06,1.3323772176992594e-06,6.826521743902503e-07,1.888569197154988e-06,1.7559536539074862e-06,2.2105235492558362e-05,1.7927354417883712e-06,2.0894060899092317e-06
71,2.0329655266010126e-06,2.147478070990521e-06,1.9200010862290912e-06,2.678874813219122e-06,2.505332855695376e-06,3.639495454270272e-06,2.2921132211824776e-06,6.450048085788395e-06,5.545964294791228e-06,1.3108651032423172e-06,6.527882647630989e-07,1.8407166546076643e-06,1.784527768723351e-06,2.2510139489821952e-05,1.7876305212984617e-06,2.1157408210839635e-06
72,2.0389006527259846e-06,2.176305391584932e-06,1.9511762234094895e-06,2.6410782927116835e-06,2.5890454223443616e-06,3.71337541103836e-06,2.31856141560965e-06,6.345703563315691e-06,5.781958264188519e-06,1.2958774729223835e-06,6.241445525460326e-07,1.79278405846748e-06,1.8181181959820204e-06,2.2855722936906882e-05,1.7835992826268498e-06,2.138451541905855e-06
73,2.044287394736853e-06,2.2016554499387074e-06,1.9837893251571366e-06,2.6035753904879446e-06,2.6695637630640558e-06,3.7722079087964913e-06,2.3466836310948676e-06,6.243184328015483e-06,6.048524075355199e-06,1.2878176788097022e-06,5.970903619233159e-07,1.7461645111217125e-06,1.8559591914814425e-06,2.3142662711449204e-05,1.7804246311913939e-06,2.1564605693362543e-06
74,2.0486758802694354e-06,2.2237603247968957e-06,2.0184507920219484e-06,2.566761542544898e-06,2.744708842113797e-06,3.8139679842553188e-06,2.375141943338783e-06,6.140775106727041e-06,6.345437756864537e-06,1.2868526559336033e-06,5.723331732510437e-07,1.7020058016421464e-06,1.897126727240336e-06,2.337562556798561e-05,1.7778936139092358e-06,2.169390753989862e-06
75,2.051843995174456e-06,2.242888324455106e-06,2.0557169408018824e-06,2.530898355659556e-06,2.8128278265932643e-06,3.838178592233508e-06,2.4024709514290807e-06,6.037606422959339e-06,6.67130375449521e-06,1.2929711830515567e-06,5.508169050257915e-07,1.661201652577367e-06,1.940557811429175e-06,2.3562441180067013e-05,1.7758308734634095e-06,2.177590988431288e-06
76,2.053456749040864e-06,2.2593031148516008e-06,2.0960172926788355e-06,2.495989322279721e-06,2.8731452770933425e-06,3.846124639877968e-06,2.4271202349283633e-06,5.933748317584732e-06,7.023441925757355e-06,1.3060120302214302e-06,5.335558240815679e-07,1.6244158644704546e-06,1.9850431185383466e-06,2.3712329806340352e-05,1.7741641923771431e-06,2.1817305967736314e-06
77,2.053000466083847e-06,2.273217084252903e-06,2.1395420446854356e-06,2.4619261354905707e-06,2.925733354630229e-06,3.840393180235241e-06,2.4474037870349223e-06,5.829980751676332e-06,7.397811289569469e-06,1.325677400687901e-06,5.215567707147233e-07,1.592103232483181e-06,2.0293113217548585e-06,2.3833816465628427e-05,1.7730869048325173e-06,2.182368428771085e-06
78,2.0500471704044532e-06,2.2848180787821878e-06,2.18616424555631e-06,2.4287182215752117e-06,2.9710526976040764e-06,3.824114810971583e-06,2.4616273921323346e-06,5.727498639553047e-06,7.78905268786075e-06,1.3515424537586913e-06,5.158489609533473e-07,1.564602547212931e-06,2.0723598636123443e-06,2.3932764548891482e-05,1.7730667539764695e-06,2.1797650088024252e-06
79,2.0444965767869698e-06,2.294392232723619e-06,2.2354060339122185e-06,2.3965066676251264e-06,3.009490985699171e-06,3.8003506006653796e-06,2.468555903914417e-06,5.627688712569057e-06,8.190751851163812e-06,1.3830465024405845e-06,5.175725376072314e-07,1.5423466691625e-06,2.11378895374587e-06,2.4011545005188177e-05,1.774657867457215e-06,2.173873812294257e-06
80,2.0364921893596776e-06,2.3024043663402486e-06,2.286422353725982e-06,2.3653950465410426e-06,3.0412368207395694e-06,3.7717826610170357e-06,2.4678641566043873e-06,5.531904450734229e-06,8.595868210758082e-06,1.4194804997708877e-06,5.280594034230812e-07,1.5260625376936523e-06,2.153735757709356e-06,2.407008508800404e-05,1.7783725252781952e-06,2.1644244066493933e-06
81,2.0261276768515095e-06,2.309386601306844e-06,2.3380385307057514e-06,2.3353471580916626e-06,3.0663676809684586e-06,3.74058758674819e-06,2.460100570438376e-06,5.441178113004951e-06,8.997256403123934e-06,1.4600194782382548e-06,5.488406312050739e-07,1.5168059131465756e-06,2.192487146471525e-06,2.4107853776373762e-05,1.784653905118843e-06,2.1510721220091614e-06
82,2.0132819086913587e-06,2.3157017825656156e-06,2.388825867980609e-06,2.3062016175384223e-06,3.0849329260264957e-06,3.7084161054963365e-06,2.446248360333332e-06,5.356029595578198e-06,9.388306084094418e-06,1.5038102360992966e-06,5.815894443040876e-07,1.5157990249682294e-06,2.230239738736834e-06,2.4125229136639133e-05,1.7938807726487241e-06,2.133553485830091e-06
83,1.9977230560132245e-06,2.3214296930304766e-06,2.437128421301407e-06,2.277702481891961e-06,3.096937841403388e-06,3.6764211252708205e-06,2.4273590827750286e-06,5.2766047544619986e-06,9.763485569058955e-06,1.5499932212455994e-06,6.280536292478957e-07,1.5241961064548472e-06,2.2671813534221118e-06,2.412369139014681e-05,1.8064080525936782e-06,2.111790678934526e-06
84,1.9793626404361344e-06,2.326493597278753e-06,2.4811019654503916e-06,2.2495672205218677e-06,3.102265243814248e-06,3.6451790458664867e-06,2.404430243335845e-06,5.2031054241373265e-06,1.011824845617841e-05,1.5976055728780624e-06,6.900032557832236e-07,1.542959696097412e-06,2.3036214684934507e-06,2.410500844721617e-05,1.8225502914221783e-06,2.0858991707833326e-06
85,1.958477108778747e-06,2.3308125573912745e-06,2.5189114585696474e-06,2.221624007546389e-06,3.100708669520911e-06,3.614534162207068e-06,2.3783705373307305e-06,5.136181013698939e-06,1.0448147841736145e-05,1.6455309341757758e-06,7.692160107659382e-07,1.572897456324816e-06,2.3399241180559277e-06,2.4069644076346706e-05,1.842449553563721e-06,2.056107221060894e-06
86,1.9357551522074758e-06,2.3342503784836143e-06,2.5490077430407214e-06,2.193875952837871e-06,3.0921829193068697e-06,3.5835931276499005e-06,2.3500169183497138e-06,5.077030403666547e-06,1.0747957120196339e-05,1.6926148154083787e-06,8.675047862439337e-07,1.6147404767213013e-06,2.376287434476972e-06,2.4015023503942864e-05,1.8659541217398874e-06,2.022690567372933e-06
87,1.912125906077247e-06,2.3365158895238407e-06,2.5702754139463635e-06,2.166369796274179e-06,3.076879277306866e-06,3.550951825912554e-06,2.320191643960356e-06,5.0272812196661735e-06,1.1011727307104306e-05,1.7378991009365944e-06,9.867312014406136e-07,1.6691402297905777e-06,2.4126106583965557e-06,2.3935086831949238e-05,1.8926233751213507e-06,1.985976561306959e-06
88,1.888483693519373e-06,2.337198286244685e-06,2.5820390775220656e-06,2.1390245903445953e-06,3.055118162183167e-06,3.5150451226109075e-06,2.289708292198358e-06,4.98883050673934e-06,1.1233675160177995e-05,1.7808758761661617e-06,1.1287522605616882e-06,1.7366226054772473e-06,2.4486040029830127e-06,2.3822015217265263e-05,1.9218480790654384e-06,1.9463376094320087e-06
89,1.8655010411539963e-06,2.33578194893671e-06,2.5840612458702928e-06,2.1116343372449295e-06,3.027021204957699e-06,3.4744753062159264e-06,2.2594046721287942e-06,4.96365311471846e-06,1.1409191628136304e-05,1.8215907591061554e-06,1.2953167497666739e-06,1.817631339109658e-06,2.483959605987009e-06,2.3669040702223252e-05,1.9530117730665387e-06,1.9041001085082745e-06
90,1.8436199426055461e-06,2.3316032139769796e-06,2.576595876088936e-06,2.083996792151034e-06,2.992380420285198e-06,3.4282065816568775e-06,2.2302151685136673e-06,4.953465155706754e-06,1.1535650552999053e-05,1.8604845452013045e-06,1.4879977443989217e-06,1.9126552711177456e-06,2.518352815468484e-06,2.3472286590701923e-05,1.9856115316753827e-06,1.8594587969498771e-06
91,1.8231688513381757e-06,2.3239525583318334e-06,2.560459854809099e-06,2.0560335696208925e-06,2.950918344244895e-06,3.375578626624747e-06,2.203091599560518e-06,4.959285406035301e-06,1.1612920790082899e-05,1.8981699586385396e-06,1.7082409980115216e-06,2.022266296109801e-06,2.5513684028021933e-06,2.32302729051658e-05,2.0193048998797026e-06,1.812543718377055e-06
92,1.8044918394489732e-06,2.312292053470021e-06,2.5370156859951782e-06,2.0278789465960187e-06,2.902746738063139e-06,3.316232538349521e-06,2.1788576764121343e-06,4.981121600650818e-06,1.1643223484668275e-05,1.9353836022454144e-06,1.957472847607062e-06,2.1469846906889174e-06,2.582460956901798e-06,2.2941661196912806e-05,2.053889721879253e-06,1.7636010336985838e-06
93,1.7879703105408047e-06,2.296366258007478e-06,2.5079526038302317e-06,1.9999222912750445e-06,2.8486176604029715e-06,3.2501222682089168e-06,2.1581947189014553e-06,5.017971096536046e-06,1.1630050484852439e-05,1.972995509669004e-06,2.237116298042239e-06,2.2871177914565083e-06,2.610855360545887e-06,2.2603782990999315e-05,2.0891959075910684e-06,1.7131093427441769e-06
94,1.773903885246053e-06,2.276125175016703e-06,2.4749216584365055e-06,1.9727875994016613e-06,2.789770441987965e-06,3.1775793468711112e-06,2.141644790178215e-06,5.068109504649331e-06,1.1576552381023052e-05,2.0118767648818987e-06,2.548476336837091e-06,2.4426983202247803e-06,2.635431062129646e-06,2.2213171320226576e-05,2.1248938944093133e-06,1.6617442465999446e-06
95,1.7623722755275933e-06,2.251577760646614e-06,2.4392407163991793e-06,1.947326721413372e-06,2.727605687779068e-06,3.099208305011191e-06,2.129597305582534e-06,5.129388876258198e-06,1.1484412264443265e-05,2.0527118831520935e-06,2.892598611880828e-06,2.613447984151004e-06,2.6547847613620423e-06,2.176646721883252e-05,2.1603606266048508e-06,1.6102279946059963e-06
96,1.7531866221644713e-06,2.22278228142344e-06,2.401768839640174e-06,1.9247052402731905e-06,2.6634730403483466e-06,3.015680024154177e-06,2.122349140734792e-06,5.199268387947676e-06,1.1353966573212475e-05,2.0959306110046603e-06,3.2701667454480453e-06,2.798722216729613e-06,2.667514369677223e-06,2.1260688549592003e-05,2.194770601666296e-06,1.5591761585112597e-06
97,1.7459090072825571e-06,2.1900270067048908e-06,2.3628911505843885e-06,1.9064844937922524e-06,2.5985624312610494e-06,2.927736236226989e-06,2.1201028633878002e-06,5.27472347096168e-06,1.1185401288331495e-05,2.14172853215946e-06,3.6814106356722326e-06,2.9975881911597783e-06,2.6726067342354473e-06,2.0693635450660255e-05,2.2273821778751223e-06,1.5090932748383462e-06
98,1.7398926081744815e-06,2.15401729290778e-06,2.322546639878777e-06,1.8945109552598478e-06,2.5338342894830302e-06,2.836370825419022e-06,2.1228622395177285e-06,5.352436884947225e-06,1.0980176586907021e-05,2.190050179021773e-06,4.126017018244052e-06,3.20909957651605e-06,2.6697552056186473e-06,2.006431670217862e-05,2.2577970191030184e-06,1.4605294684022386e-06
99,1.7343358636934574e-06,2.1158957577993764e-06,2.280253465908402e-06,1.8906245191911434e-06,2.470101605089099e-06,2.742909495769271e-06,2.1304067118748193e-06,5.429272857175282e-06,1.0741847595165593e-05,2.2405927501490523e-06,4.603075072315289e-06,3.4325358428817536e-06,2.6594143930196075e-06,1.937246772788762e-05,2.286006619985909e-06,1.414193862748579e-06
100,1.7284038572995307e-06,2.077089161852024e-06,2.2352012539897288e-06,1.8963986034943645e-06,2.408284368960232e-06,2.6489504833876578e-06,2.1423704665590594e-06,5.502642983977044e-06,1.0475902803242243e-05,2.29295132839861e-06,5.111064749285645e-06,3.667422432514673e-06,2.642538653936793e-06,1.86182578146554e-05,2.3122333696616703e-06,1.3708844853147587e-06
101,1.721438300803319e-06,2.0390995037961446e-06,2.1865388689234583e-06,1.9130238019896627e-06,2.349605575297312e-06,2.5562384479956305e-06,2.1583128551964277e-06,5.57058537019085e-06,1.0188877312819835e-05,2.3467722796653283e-06,5.64786877611798e-06,3.913401966247602e-06,2.6201990647115724e-06,1.780408634203582e-05,2.3366834263931912e-06,1.3313402704142116e-06
102,1.7131689468080842e-06,2.003385662495401e-06,2.1337585066116567e-06,1.94128252725407e-06,2.2955322521709634e-06,2.4664660668021313e-06,2.177739064779501e-06,5.6317275189241814e-06,9.887440771668158e-06,2.401707010895104e-06,6.210783143502949e-06,4.170003676157623e-06,2.593302688029003e-06,1.6937135776881526e-05,2.3593292788570314e-06,1.2961455919870988e-06
103,1.7038253972850122e-06,1.971319974066266e-06,2.076897243004131e-06,1.9815918611709865e-06,2.2475123463469025e-06,2.3811150646027567e-06,2.200087415992378e-06,5.685286838296143e-06,9.577896870978971e-06,2.4572178334832473e-06,6.796450776691579e-06,4.436312599152357e-06,2.5625104130770614e-06,1.6029683263626682e-05,2.3798495869751295e-06,1.2657095441379822e-06
104,1.6940749838022956e-06,1.944094877759399e-06,2.016437441033217e-06,2.0341427357372116e-06,2.2067072951631986e-06,2.301473172878772e-06,2.224716913440792e-06,5.731033101673926e-06,9.265850533403759e-06,2.5124457598356416e-06,7.400659660273878e-06,4.710692060344687e-06,2.528383262972377e-06,1.5096856434774469e-05,2.3977730976165933e-06,1.2403171029195676e-06
105,1.6848415149490345e-06,1.9226073813582793e-06,1.9530603135902464e-06,2.0990700290786105e-06,2.173884398444076e-06,2.2287048286469816e-06,2.25093507004173e-06,5.7690926909161075e-06,8.955761232591427e-06,2.5662752908399715e-06,8.018116250579523e-06,4.990682361119547e-06,2.491597987507977e-06,1.4153780143394143e-05,2.412674387933992e-06,1.220176818586452e-06
106,1.677205981150427e-06,1.9074155348727476e-06,1.8874943252979269e-06,2.1765034915713215e-06,2.1495143961965612e-06,2.1637932385299544e-06,2.278072636371054e-06,5.799666839948453e-06,8.650735290111367e-06,2.6175015253317496e-06,8.642350057715396e-06,5.27299174479117e-06,2.4529608441515057e-06,1.3213721526200947e-05,2.424197869648817e-06,1.2053726288734396e-06
107,1.672397813293849e-06,1.8987517739143867e-06,1.8205399165408512e-06,2.2664472237923556e-06,2.133954069063584e-06,2.107398952481111e-06,2.305567843379008e-06,5.822860863910366e-06,8.352948705373786e-06,2.6648541644873106e-06,9.265713420158261e-06,5.5534900697346e-06,2.4132208147103285e-06,1.2287695719952488e-05,2.4319197651173195e-06,1.1958045911330092e-06
108,1.6716947584013673e-06,1.8965591584331644e-06,1.7531341793675676e-06,2.368594300216384e-06,2.1274980676400493e-06,2.059800835647966e-06,2.3330134979901897e-06,5.8387621766804765e-06,8.06437101309239e-06,2.7069158070267986e-06,9.879266356169898e-06,5.8272046649103815e-06,2.3728937745583767e-06,1.1384989642182081e-05,2.4353538200519394e-06,1.1912635724975676e-06
109,1.6762537237833732e-06,1.9005401230288334e-06,1.6863086543337785e-06,2.482201889073295e-06,2.1302885523228353e-06,2.0210059225020422e-06,2.3601264780828807e-06,5.84776805424937e-06,7.787241211918554e-06,2.742264254010611e-06,1.0472469547032116e-05,6.088322315946711e-06,2.3322631198883002e-06,1.0513586002564532e-05,2.4342026311436642e-06,1.191601385229521e-06
110,1.6870227306309713e-06,1.9102260645520953e-06,1.6210759228004567e-06,2.6061041469753317e-06,2.1422406846043218e-06,1.9909331915779857e-06,2.386609751155284e-06,5.851003461362688e-06,7.5241720189609985e-06,2.7698756506286542e-06,1.1033068549010702e-05,6.330270140450335e-06,2.2916355583028996e-06,9.680003939548307e-06,2.4284907569671643e-06,1.1968349490415245e-06
111,1.7047147802761378e-06,1.9251313867690734e-06,1.5583849220167284e-06,2.7389363932224613e-06,2.1630125121568137e-06,1.9694621038008233e-06,2.411951136134878e-06,5.850624674652072e-06,7.277990611400559e-06,2.789424246254535e-06,1.154767087149893e-05,6.546064467532101e-06,2.251728007337778e-06,8.888987324710887e-06,2.4183801546324924e-06,1.2071324894222856e-06
112,1.7297557623167482e-06,1.9449532013198303e-06,1.4991792496910054e-06,2.8795411290031346e-06,2.192024802442166e-06,1.9562888205602233e-06,2.435295106609119e-06,5.8499264667836e-06,7.051480546071984e-06,2.80123410473768e-06,1.2003020255838173e-05,6.729032771262881e-06,2.2138643051069266e-06,8.14358940842439e-06,2.4039826947104437e-06,1.2227437560092357e-06
113,1.7622214619107576e-06,1.969614619245629e-06,1.444434217619904e-06,3.02729626098819e-06,2.228539586208052e-06,1.9507605404223705e-06,2.45545407946473e-06,5.853182620196235e-06,6.847228335838755e-06,2.8059695148544865e-06,1.2387643229549597e-05,6.8737366784273885e-06,2.179788445278381e-06,7.445619627535087e-06,2.3854490222888368e-06,1.2438916289552183e-06
114,1.8018031987212782e-06,1.9990946169436464e-06,1.3950794067180034e-06,3.1820712959988574e-06,2.2716793131681636e-06,1.9518224882035246e-06,2.470950553777179e-06,5.8651102638121695e-06,6.667553805088284e-06,2.804266466355432e-06,1.2693524941339312e-05,6.976728255536165e-06,2.1512539702318983e-06,6.796141152750952e-06,2.363183396294868e-06,1.2706397927819299e-06
115,1.8477986222568502e-06,2.033240598848123e-06,1.351881988416112e-06,3.343824802435364e-06,2.3204082129070507e-06,1.958044708364732e-06,2.480027233082402e-06,5.890152067985888e-06,6.514313797156373e-06,2.796467130330666e-06,1.2917207608331038e-05,7.036752352493126e-06,2.129709140968927e-06,6.19582559700281e-06,2.3378867547477367e-06,1.3028132453509826e-06
116,1.8991508652528399e-06,2.0716814905018878e-06,1.315390011403309e-06,3.5121468870392195e-06,2.3736338338286987e-06,1.9677123174559573e-06,2.4808018107325124e-06,5.932005334072892e-06,6.388675027842691e-06,2.7825075514899607e-06,1.3059495397183736e-05,7.054151117507068e-06,2.1162170088483925e-06,5.645013358977582e-06,2.3103786083566994e-06,1.339999019131368e-06
117,1.9545604917408208e-06,2.1137890791615612e-06,1.2859386349542557e-06,3.685995720460862e-06,2.430344908825348e-06,1.9790282672185863e-06,2.4717108521512267e-06,5.993447670121837e-06,6.291253723152425e-06,2.7619681619663816e-06,1.3123557345280267e-05,7.029709601863771e-06,2.1115006825442375e-06,5.143475132204941e-06,2.2813955654514103e-06,1.3815700734124134e-06
118,2.012589992598808e-06,2.1587010468290656e-06,1.2636923071065153e-06,3.863617670703024e-06,2.4895963042145945e-06,1.9903940703582826e-06,2.4520478078487883e-06,6.0761955795493454e-06,6.222583463165962e-06,2.7343749386666123e-06,1.3112497679602411e-05,6.963790112756893e-06,2.115962401313091e-06,4.690171461465464e-06,2.2515267653169826e-06,1.4266821634230324e-06
119,2.0716573634483972e-06,2.20543556117646e-06,1.248702174505928e-06,4.042529081877891e-06,2.550381575955464e-06,2.0006921266242334e-06,2.4222461458123917e-06,6.180788713597877e-06,6.1833016733828294e-06,2.699679473994137e-06,1.3028080997710532e-05,6.856430820734336e-06,2.1296608473941868e-06,4.28326443281999e-06,2.221224121317825e-06,1.4742546328949866e-06
120,2.12999660638345e-06,2.2530240900405227e-06,1.2409430914955998e-06,4.2195991722080755e-06,2.6115853954598137e-06,2.0095102267561446e-06,2.383742430582602e-06,6.306657255977976e-06,6.173753873969167e-06,2.658502133741239e-06,1.2871272819627845e-05,6.708150360185721e-06,2.1523239523135417e-06,3.9203332241209205e-06,2.1907538248509213e-06,1.5229895122518478e-06
121,2.18578753324242e-06,2.300630278569783e-06,1.2403004242195794e-06,4.391374011559095e-06,2.6721466889205683e-06,2.017179169157602e-06,2.3385257132223874e-06,6.452286309238748e-06,6.1934170434379795e-06,2.611887562689771e-06,1.2643779667546745e-05,6.520768126734547e-06,2.1834034186584076e-06,3.598686339554921e-06,2.16014575811506e-06,1.57149247648813e-06
122,2.2374655639677486e-06,2.347702746097049e-06,1.2465474056890727e-06,4.55456133691862e-06,2.7313902000962698e-06,2.0245210440071786e-06,2.2886767984392e-06,6.615252995567956e-06,6.2405893272506065e-06,2.560940549515288e-06,1.2349533882924265e-05,6.297897774412633e-06,2.2220813446912555e-06,3.3156823161851924e-06,2.12923453876286e-06,1.6185027649690355e-06
123,2.2839575368991265e-06,2.3941315821880715e-06,1.2593743310963442e-06,4.706390717560314e-06,2.789294415199598e-06,2.0324393963170334e-06,2.2361817462710945e-06,6.792178007025725e-06,6.312431576826686e-06,2.506735889937342e-06,1.19956535580285e-05,6.0450837277958915e-06,2.2672425477488677e-06,3.0688569558291624e-06,2.0977113502935517e-06,1.6631274507309192e-06
124,2.324617707441564e-06,2.4402553227523754e-06,1.2784344949839769e-06,4.844644049714256e-06,2.8464206307286335e-06,2.0416432141398264e-06,2.182972045133016e-06,6.978787139938199e-06,6.405361797266341e-06,2.4503263729914567e-06,1.1592738997067506e-05,5.7695669495150435e-06,2.3175868820535135e-06,2.8557697065454713e-06,2.0651563196328054e-06,1.70493725999209e-06
125,2.358915811126881e-06,2.4866158368193776e-06,1.303363384721205e-06,4.96732794334232e-06,2.903512179386463e-06,2.0526433561706803e-06,2.130907568825228e-06,7.169962660822327e-06,6.515674413148288e-06,2.3926546432327052e-06,1.1154427887152709e-05,5.479683670503573e-06,2.371950660735431e-06,2.6737907570348156e-06,2.0311263413145686e-06,1.7438578416115404e-06
126,2.386163084388909e-06,2.5335787607046605e-06,1.3338199341443746e-06,5.072196504878735e-06,2.9611610416332805e-06,2.0658534707045882e-06,2.0816558360582286e-06,7.359648595038016e-06,6.639929371099095e-06,2.3345622191480697e-06,1.0696316556309517e-05,5.184048872835911e-06,2.42964351045538e-06,2.520066987358908e-06,1.9952710321459016e-06,1.7799213579114413e-06
127,2.405512571947544e-06,2.5810522853328054e-06,1.3695702536805516e-06,5.156611609004755e-06,3.0197616477706943e-06,2.0815587148549244e-06,2.0366554344044254e-06,7.540986460351603e-06,6.774818230161699e-06,2.2769545845863026e-06,1.0234632118613802e-05,4.890806363156407e-06,2.4905675338659677e-06,2.391714516218389e-06,1.9574010326107324e-06,1.8130346759719846e-06
128,2.4161782223945156e-06,2.6283964239926785e-06,1.4105211983299635e-06,5.218009949819475e-06,3.0794904793201355e-06,2.099767029981547e-06,1.9971675568211906e-06,7.707001105250114e-06,6.916790077531395e-06,2.2208700698766676e-06,9.785034514939164e-06,4.6071714620762115e-06,2.5551190943555704e-06,2.2861757075482708e-06,1.9175249620583843e-06,1.84288670323945e-06
129,2.4176298969222113e-06,2.6744655859504074e-06,1.4566275972160847e-06,5.2545978043049815e-06,3.140182881430472e-06,2.1201445477261543e-06,1.9642578483103346e-06,7.851467726358844e-06,7.061895759279554e-06,2.167339038952928e-06,9.36175152643216e-06,4.33927997249896e-06,2.6240314913276503e-06,2.2015007870581048e-06,1.8759237711395532e-06,1.8690003973197468e-06
130,2.409637929960336e-06,2.7177618942213984e-06,1.5077501189818402e-06,5.2657514569832085e-06,3.2012583027444326e-06,2.14212332261156e-06,1.9387172786686228e-06,7.969446305433431e-06,7.205954391394884e-06,2.117208995060359e-06,8.977193720227741e-06,4.092193107555394e-06,2.6982080087411594e-06,2.1362946672367e-06,1.8332258375095307e-06,1.8908457411955627e-06
131,2.3922426764081318e-06,2.756688115008126e-06,1.5635774141016437e-06,5.251973411590523e-06,3.2617107114678024e-06,2.165071822068122e-06,1.921034442847806e-06,8.057470277248083e-06,7.344751039874471e-06,2.0711293046423144e-06,8.641978830863567e-06,3.869936262224505e-06,2.778502057767837e-06,2.0894876749254784e-06,1.7903339788808485e-06,1.9079291881156615e-06
132,2.365727671219177e-06,2.789793418657274e-06,1.6236022163083067e-06,5.214468105452533e-06,3.3201692891344176e-06,2.1884004367503335e-06,1.9113988427574137e-06,8.113638478305933e-06,7.473979824442223e-06,2.0296663081577302e-06,8.365053638707664e-06,3.6755706616883686e-06,2.8655232808486733e-06,2.0602735013608876e-06,1.74821039901051e-06,1.919789463378129e-06
133,2.3305680953973073e-06,2.815925528352481e-06,1.6871268663580084e-06,5.1544970080759175e-06,3.3750496726412036e-06,2.2116250537801087e-06,1.9096755687566245e-06,8.137687922776745e-06,7.5889668050020975e-06,1.993393440441945e-06,8.15379960753267e-06,3.5113418341767623e-06,2.959543951642937e-06,2.048149114334252e-06,1.7077160233344137e-06,1.9258768800766595e-06
134,2.287371829693835e-06,2.834345387422625e-06,1.7533051503205931e-06,5.0729073496340936e-06,3.4246584025011133e-06,2.234473401590528e-06,1.9153938721797037e-06,8.131030899933578e-06,7.68451648646107e-06,1.9629346091397917e-06,8.014218305737379e-06,3.378921559786508e-06,3.0604215089712288e-06,2.052789088244476e-06,1.6695543531651356e-06,1.9254744186128277e-06
135,2.2369063231744137e-06,2.8448885991080703e-06,1.82114380050385e-06,4.970265923467273e-06,3.4672617654265962e-06,2.256992846931102e-06,1.927814056136466e-06,8.096819019928702e-06,7.755407686179298e-06,1.9389904112823597e-06,7.951184273036092e-06,3.2797282543305422e-06,3.167547763914087e-06,2.073844321415407e-06,1.6342372787041163e-06,1.9178706297917018e-06
136,2.180148153595878e-06,2.8480962860536144e-06,1.8894209126813109e-06,4.847549903442044e-06,3.501336276213149e-06,2.2795316856150196e-06,1.9460683686454217e-06,8.03996320368093e-06,7.797645989552544e-06,1.922281579518323e-06,7.968699484453648e-06,3.215213597600586e-06,3.2799367454080974e-06,2.1109039981375127e-06,1.6021368476197925e-06,1.9027398109922767e-06
137,2.1182013627750927e-06,2.8451155569309877e-06,1.9566284589219667e-06,4.706839435040103e-06,3.525985650592974e-06,2.3025747576061203e-06,1.9692931495288916e-06,7.966773860962676e-06,7.809717908301944e-06,1.9134120991688057e-06,8.070145830788333e-06,3.1868992981515585e-06,3.396359813513796e-06,2.163588845895577e-06,1.5736585282838388e-06,1.880448504317055e-06
138,2.052212203609305e-06,2.8373278939825876e-06,2.0210606484231967e-06,4.551519969805902e-06,3.5412362185964784e-06,2.3265954838518976e-06,1.9966414751256415e-06,7.88403283569958e-06,7.792990904954787e-06,1.9127640879540136e-06,8.258487532305748e-06,3.19611241751836e-06,3.5153431932764448e-06,2.2316611834585685e-06,1.5493446791226937e-06,1.8520325834351068e-06
139,1.9834834995222798e-06,2.8259360293727327e-06,2.08107722614535e-06,4.385957096753268e-06,3.548025552779315e-06,2.352089491999517e-06,2.027183404342079e-06,7.797872968391644e-06,7.751140207244307e-06,1.9204786018006616e-06,8.536299147064702e-06,3.243658209897529e-06,3.6350859875866925e-06,2.315115581911661e-06,1.5297749402616854e-06,1.8188561759810456e-06
140,1.9135835792541527e-06,2.811741677857751e-06,2.135456408763512e-06,4.2149119741880605e-06,3.547947120099935e-06,2.379696815021227e-06,2.059851585318847e-06,7.7130687838288e-06,7.689123590476854e-06,1.9364954951821543e-06,8.905596264551507e-06,3.329636155961794e-06,3.753441717528659e-06,2.4141539314641406e-06,1.5153775389349543e-06,1.7822452393974121e-06
141,1.8441799462495795e-06,2.7951005622701784e-06,2.18365577107844e-06,4.042958634679034e-06,3.54290072960731e-06,2.410178624537945e-06,2.093491825947929e-06,7.632864651892275e-06,7.612252882518825e-06,1.960625731398602e-06,9.367606201133352e-06,3.453380256822872e-06,3.867911643956596e-06,2.528979452320652e-06,1.5062992056179047e-06,1.743330973492088e-06
142,1.776758591089343e-06,2.775963776478718e-06,2.2258372137681095e-06,3.874068201211073e-06,3.5347492175921607e-06,2.4443069988832595e-06,2.126904505693184e-06,7.559018766826907e-06,7.525526989559664e-06,1.9926182473851e-06,9.922572642325076e-06,3.6134549715489557e-06,3.975670945661557e-06,2.659554808652744e-06,1.502349932404033e-06,1.7030419855416695e-06
143,1.7124946834626905e-06,2.7540536139694536e-06,2.262665301488208e-06,3.7114385513428204e-06,3.5250337935862457e-06,2.482906000905094e-06,2.1588558331688797e-06,7.491898497900587e-06,7.433337721320527e-06,2.0321606274364284e-06,1.0569570758150256e-05,3.807666288803237e-06,4.0738099861802786e-06,2.805467675389072e-06,1.5029931268005204e-06,1.6620905551229812e-06
144,1.6522561959958379e-06,2.729180975198527e-06,2.2949951141577644e-06,3.5575085025392127e-06,3.5147836366103086e-06,2.526949070108838e-06,2.188159270353115e-06,7.430745430455906e-06,7.33973033423177e-06,2.0787913812852776e-06,1.1306335976719492e-05,4.033030401098706e-06,4.159746472164515e-06,2.9658323644882994e-06,1.5074057051091707e-06,1.620940196261458e-06
145,1.5966251784650742e-06,2.7015134916353973e-06,2.3236233935604352e-06,3.4140529090229133e-06,3.5044218559088414e-06,2.57745580010437e-06,2.213809136121785e-06,7.374172454630654e-06,7.248912667460099e-06,2.131761246516781e-06,1.2129124195728217e-05,4.285697959866694e-06,4.231552361180684e-06,3.1391978198685986e-06,1.5146438027314802e-06,1.5798221791575117e-06
146,1.5459484913639397e-06,2.6716166343614437e-06,2.349288304014157e-06,3.28237133715567e-06,3.49372843348816e-06,2.6352587198524763e-06,2.2350113120854886e-06,7.320726233711203e-06,7.1653983565743514e-06,2.1899125477930785e-06,1.3032539338593634e-05,4.5609317884561005e-06,4.288078476378197e-06,3.3235955466042042e-06,1.523828361325e-06,1.5387871395050453e-06
147,1.5004191793470502e-06,2.640272945219085e-06,2.3728961741232353e-06,3.163546644681095e-06,3.481878528905411e-06,2.700856005073624e-06,2.2510411974429122e-06,7.269250177473924e-06,7.093630986016599e-06,2.2516279178793084e-06,1.4009277656462344e-05,4.8532086518189425e-06,4.328905712975068e-06,3.5167482590790934e-06,1.5341922471951109e-06,1.497742635975715e-06
148,1.4600914996646149e-06,2.608212016897733e-06,2.3956805825894336e-06,3.058584991722715e-06,3.4676702694554614e-06,2.7743517526918256e-06,2.2611117881652487e-06,7.218930968714376e-06,7.037498339224308e-06,2.3148880853451913e-06,1.5049836742859126e-05,5.156377483667302e-06,4.3540804047443175e-06,3.7162657303742546e-06,1.545024893431393e-06,1.4565415369499812e-06
149,1.4248326176500401e-06,2.5759207827800305e-06,2.4190850822244707e-06,2.9683255313045393e-06,3.449958678853106e-06,2.8554284256096967e-06,2.2645293600681835e-06,7.169148728273204e-06,7.0001804179158365e-06,2.37751410587685e-06,1.614223553336029e-05,5.463758789992919e-06,4.363643500807775e-06,3.919685994327213e-06,1.5556902170879986e-06,1.4151478818400512e-06
150,1.3943322152624877e-06,2.543645945719596e-06,2.444513811361184e-06,2.8932283700116512e-06,3.4281133170819485e-06,2.9433457637427424e-06,2.261115166578128e-06,7.119339439143055e-06,6.984264077244823e-06,2.4375609028081944e-06,1.727170053160964e-05,5.7681988504443475e-06,4.357311330645016e-06,4.124368338853868e-06,1.5657158378193668e-06,1.3737077534369082e-06
151,1.3682170124967878e-06,2.5115603164231064e-06,2.473171946857282e-06,2.8332178124113963e-06,3.4022875206369036e-06,3.0368863031112036e-06,2.2515032049458467e-06,7.068996363321499e-06,6.99170272553214e-06,2.4935643026137203e-06,1.8420296575692512e-05,6.062230328116948e-06,4.334707404468181e-06,4.327358680025662e-06,1.574831309102789e-06,1.3324357144484774e-06
152,1.3461857015509533e-06,2.479950934054084e-06,2.5059631901798165e-06,2.7876523359855872e-06,3.3733645964060185e-06,3.134272248023435e-06,2.2369948979142204e-06,7.0178106751373394e-06,7.023532665741613e-06,2.544441837029388e-06,1.9566639218069757e-05,6.33840483723341e-06,4.2960094509760354e-06,4.525563877259876e-06,1.5829122038999639e-06,1.2914687467510567e-06
153,1.3280525197420367e-06,2.449304684220899e-06,2.543361175572862e-06,2.755358728564326e-06,3.3425599927717043e-06,3.233268306208675e-06,2.2191084749276363e-06,6.965857707534229e-06,7.079731796901599e-06,2.5893324106674187e-06,2.0685748544983762e-05,6.589564837571248e-06,4.242423910369587e-06,4.716504571314019e-06,1.5898584127231393e-06,1.2508141503956288e-06
154,1.313736426875494e-06,2.42027925031789e-06,2.5853479763679537e-06,2.7347040301403015e-06,3.3109069261217596e-06,3.3315389487442286e-06,2.1992040033073754e-06,6.91371578290774e-06,7.1594067792033105e-06,2.627632307273783e-06,2.1748902621904444e-05,6.808699467883484e-06,4.176006945291092e-06,4.899141709773052e-06,1.5954930018295914e-06,1.2103913371657554e-06
155,1.3033124766902842e-06,2.393607694602216e-06,2.6314467472960755e-06,2.7237827574222537e-06,3.27901682254475e-06,3.4270413495755686e-06,2.1783213350413144e-06,6.862489925909391e-06,7.2609537301421695e-06,2.6590718028156263e-06,2.2723869252985566e-05,6.988526291005689e-06,4.098956305129025e-06,5.073935065771981e-06,1.5995540642616202e-06,1.1701423753452236e-06
156,1.297059034340634e-06,2.369947641830096e-06,2.6807344182409577e-06,2.720673457798065e-06,3.2472978100978456e-06,3.5182397856072047e-06,2.1571367910904333e-06,6.813822324247446e-06,7.382066272282018e-06,2.683699833493267e-06,2.357671639670878e-05,7.121642108361777e-06,4.013039951379473e-06,5.242223366597671e-06,1.6017954782296016e-06,1.1301271548109868e-06
157,1.2953584987554216e-06,2.3496967836485706e-06,2.7318670592288324e-06,2.723539551686669e-06,3.2164114124199375e-06,3.604185898464234e-06,2.1359732793071156e-06,6.769940060838387e-06,7.5200456944190475e-06,2.701794438340917e-06,2.4275865225244865e-05,7.201773638977312e-06,3.9195656049887355e-06,5.405675939102069e-06,1.60220018834138e-06,1.0905027618623324e-06
158,1.2985216203447155e-06,2.332900011063469e-06,2.78327282752785e-06,2.7305283335446516e-06,3.1875493140551964e-06,3.6846377569289038e-06,2.1148121839778715e-06,6.73363473364639e-06,7.672500610052522e-06,2.7137815791626603e-06,2.4797045323871605e-05,7.225419023155678e-06,3.819627808250901e-06,5.566000361254369e-06,1.6011410436621777e-06,1.0514461933056997e-06
159,1.3066935838488268e-06,2.319329872729022e-06,2.8334861789727624e-06,2.7397282082119675e-06,3.162297289160579e-06,3.7602044549633546e-06,2.093302583943281e-06,6.708045459883147e-06,7.837770955442576e-06,2.720202232958235e-06,2.5126074778461665e-05,7.192593303528152e-06,3.714225596175672e-06,5.724766184719587e-06,1.5992681074208182e-06,1.0131650213260231e-06
160,1.3198670086199799e-06,2.308622810738881e-06,2.8813984202375523e-06,2.7492900704376724e-06,3.1422079881699863e-06,3.832278093164567e-06,2.0708605690779892e-06,6.696296388294653e-06,8.014586827223499e-06,2.721623145465376e-06,2.5257147008916192e-05,7.106069521372324e-06,3.6041351911908393e-06,5.883511407760953e-06,1.5972543286307914e-06,9.759732812321125e-07
161,1.3379376549809492e-06,2.3003179462028643e-06,2.9262525021323846e-06,2.75749746388464e-06,3.1283815714561274e-06,3.902613692509165e-06,2.046880939284701e-06,6.701136298950939e-06,8.201272177079746e-06,2.718621703677753e-06,2.5188517737192697e-05,6.9697845790761845e-06,3.489714564529491e-06,6.0440200251915855e-06,1.5956525663936904e-06,9.402910197584401e-07
162,1.3607211888670614e-06,2.2937708357061897e-06,2.967473937787199e-06,2.762654154261496e-06,3.121261258847904e-06,3.972754431237605e-06,2.020967464196064e-06,6.724620769975668e-06,8.395199751718614e-06,2.7119912396890403e-06,2.4920766980043125e-05,6.7878452046307834e-06,3.370944932405942e-06,6.208295616892406e-06,1.594855401381788e-06,9.065808924461095e-07
163,1.387938117712903e-06,2.288005893561338e-06,3.00461483126113e-06,2.762910429970667e-06,3.120705139037614e-06,4.043655982780132e-06,1.993098739868548e-06,6.767820967492917e-06,8.592902507811081e-06,2.702833531331368e-06,2.4459349362124575e-05,6.5647071972651965e-06,3.2478422575238703e-06,6.378205798701503e-06,1.5951123420831702e-06,8.753412525890947e-07
164,1.4192550818507446e-06,2.281656919137812e-06,3.0375108482881616e-06,2.756302625600581e-06,3.1263368336525314e-06,4.115638360373151e-06,1.963689380553053e-06,6.830615565435529e-06,8.790662212399686e-06,2.692364643985507e-06,2.3817558823669643e-05,6.30568856195272e-06,3.121011078269463e-06,6.555124858738885e-06,1.5966256936129283e-06,8.471368090060543e-07
165,1.4543437245220175e-06,2.2731834969957024e-06,3.0664173354552225e-06,2.7411601928406727e-06,3.1380294397877216e-06,4.188523539297293e-06,1.933526453786168e-06,6.9115963718800025e-06,8.985175239359173e-06,2.6817879820374894e-06,2.3016551432917325e-05,6.017040756316759e-06,2.9918597157745386e-06,6.739632697486017e-06,1.5996276671658086e-06,8.225815651781529e-07
166,1.492840106179818e-06,2.2613585646751514e-06,3.0918710564370817e-06,2.716616527348818e-06,3.156186470999823e-06,4.2618683323954286e-06,1.903603328388825e-06,7.008073569478627e-06,9.174038355588718e-06,2.672384179103803e-06,2.2082874683680835e-05,5.705645135487887e-06,2.862272026676028e-06,6.931193077529287e-06,1.6043750952982933e-06,8.022744725841329e-07
167,1.5342314572204422e-06,2.2456990417694534e-06,3.1143563263368455e-06,2.6828081217832807e-06,3.1816242387321043e-06,4.335276905971069e-06,1.87491074631493e-06,7.116273718054792e-06,9.355873179195516e-06,2.665517409371555e-06,2.1045250445859424e-05,5.378588895464347e-06,2.734194513519249e-06,7.127942662880559e-06,1.6111872118867525e-06,7.867288453443661e-07
168,1.5778070785694406e-06,2.226463555857963e-06,3.1340809747259153e-06,2.640616153441431e-06,3.215246618778634e-06,4.4085753213687255e-06,1.848271004564725e-06,7.231742800835206e-06,9.53000494923216e-06,2.6624011100068196e-06,1.993168821809643e-05,5.042735256325559e-06,2.6095436015417227e-06,7.326769507451714e-06,1.6205626707616373e-06,7.763275220498909e-07
169,1.6227550334604772e-06,2.204227940654496e-06,3.1509842517110165e-06,2.591130405587124e-06,3.2578145589886548e-06,4.481592493325173e-06,1.8243168070801023e-06,7.349693119951961e-06,9.695777731523257e-06,2.6638300808850203e-06,1.876738391451467e-05,4.704395651074674e-06,2.490189326959394e-06,7.5235724749020996e-06,1.6331922712271786e-06,7.713204362719462e-07
170,1.6683941456692173e-06,2.1794653488090576e-06,3.164794520812684e-06,2.535189481584118e-06,3.309838444198436e-06,4.553704943329269e-06,1.8035749237761015e-06,7.4651142640646565e-06,9.851730594880104e-06,2.6700590222432847e-06,1.7573674857579808e-05,4.369148289644599e-06,2.3778050051402286e-06,7.713564681296042e-06,1.649770009599373e-06,7.71866621628599e-07
171,1.7144516755782692e-06,2.1525190548364883e-06,3.174948220226162e-06,2.4732394303974613e-06,3.3714565089334824e-06,4.6236077435188135e-06,1.7864773623004741e-06,7.57278361928347e-06,9.995099826425436e-06,2.680819640728488e-06,1.6368044050148244e-05,4.041729839330518e-06,2.2737598488652194e-06,7.891873012290703e-06,1.6707706292793108e-06,7.780912166011627e-07
172,1.7612024814615004e-06,2.12388624993461e-06,3.1804315753321787e-06,2.4055084048664263e-06,3.442372136327798e-06,4.68956055246739e-06,1.773310823387445e-06,7.667371788669946e-06,1.0121990329937348e-05,2.6954794083525763e-06,1.5164715299790544e-05,3.7259642602462714e-06,2.1791241205951676e-06,8.054452637527963e-06,1.696397995256998e-06,7.900934981084273e-07
173,1.8093250473906146e-06,2.0943667954312915e-06,3.1797664309957855e-06,2.3323733117679846e-06,3.521980940749113e-06,4.749923080057343e-06,1.7642158587428643e-06,7.743720277232731e-06,1.0227940937923284e-05,2.7132925438563106e-06,1.3975380200647404e-05,3.42476683614117e-06,2.0946492415148453e-06,8.1987050239907e-06,1.7266667777347818e-06,8.078942285299094e-07
174,1.859586951248928e-06,2.064860878233224e-06,3.1712561688526334e-06,2.254703970375844e-06,3.6094893865611692e-06,4.803566021144495e-06,1.7591644643251756e-06,7.797299648065955e-06,1.030849282427218e-05,2.733499926192947e-06,1.280986732834524e-05,3.140210811742519e-06,2.0207062311397433e-06,8.323416705608062e-06,1.7614425601502067e-06,8.313861621777027e-07
175,1.9126143047079988e-06,2.0360918004046024e-06,3.153403007932219e-06,2.1739279232919937e-06,3.7038142335418083e-06,4.8499330315811e-06,1.757908250236332e-06,7.824778257229396e-06,1.0359786374767443e-05,2.7551591491274614e-06,1.167660516507441e-05,2.873623059079449e-06,1.9573271556099173e-06,8.428282930776028e-06,1.8004335543800248e-06,8.603274627910667e-07
176,1.968803275394308e-06,2.008539769021281e-06,3.1253133437739422e-06,2.091785001432883e-06,3.803492204708568e-06,4.888898359217726e-06,1.7600215540412979e-06,7.824497112429025e-06,1.0379215539398502e-05,2.776969212393924e-06,1.058277473225918e-05,2.6256912842011545e-06,1.9043822951547872e-06,8.513472010243067e-06,1.8432025629918705e-06,8.943678924219472e-07
177,2.028254584019683e-06,1.982506739858168e-06,3.0869237180017507e-06,2.0100231844727927e-06,3.906840738474159e-06,4.920667039516232e-06,1.7649859514392554e-06,7.796613666388509e-06,1.0365858370976941e-05,2.797414383445189e-06,9.534284435012118e-06,2.396555189667268e-06,1.8617458443760762e-06,8.579453504027754e-06,1.889125478204086e-06,9.330821815098978e-07
178,2.0906934732505347e-06,1.958118599852332e-06,3.0389692087600144e-06,1.930233934698966e-06,4.0121708141462814e-06,4.94575766072096e-06,1.7722090436002461e-06,7.742844925603158e-06,1.032042630596893e-05,2.8152023339309837e-06,8.535838976639333e-06,2.1859117170408983e-06,1.8293444090190204e-06,8.626842150510365e-06,1.937276412253377e-06,9.759727755275356e-07
179,2.1554275411491362e-06,1.935236135745046e-06,2.9827434677085952e-06,1.8538151870817928e-06,4.11783378885845e-06,4.96489742694022e-06,1.7810861628645762e-06,7.665947480281609e-06,1.024475321573678e-05,2.8296315753193944e-06,7.591205383016434e-06,1.99315531815907e-06,1.8071035196805024e-06,8.65595068762831e-06,1.9863721443799518e-06,1.022436234320545e-06
180,2.2213689533110592e-06,1.913387432602358e-06,2.9197657074663905e-06,1.7819867986161737e-06,4.222146676191661e-06,4.97868703638558e-06,1.7911296181049867e-06,7.5690993843300265e-06,1.0140986222622729e-05,2.8405633038042734e-06,6.7034889070581394e-06,1.817472375809372e-06,1.7948443549256655e-06,8.666537620397861e-06,2.0348590222526695e-06,1.071730261072437e-06
181,2.2870944341573372e-06,1.8918774582021419e-06,2.8514707234043696e-06,1.715776131609677e-06,4.323235654730971e-06,4.987136220721668e-06,1.8019528445567356e-06,7.455238872418554e-06,1.0010692068032494e-05,2.8480604363840197e-06,5.875153107044481e-06,1.6578716770961799e-06,1.7922141681208836e-06,8.658507101014621e-06,2.0811112166486382e-06,1.1229674045648352e-06
182,2.3508861903389922e-06,1.8701123781636429e-06,2.7790458123609925e-06,1.6559482975191398e-06,4.418867937625178e-06,4.989356467293955e-06,1.8131420278473738e-06,7.326494893724695e-06,9.854297728251142e-06,2.852033246935359e-06,5.107771525797004e-06,1.513257317137651e-06,1.7986915654213293e-06,8.633219178185872e-06,2.123639393007414e-06,1.1751681094833384e-06
183,2.4107788286469825e-06,1.8479275487509797e-06,2.7034998779869076e-06,1.602981593899435e-06,4.506450930103636e-06,4.983545242253651e-06,1.824226723897644e-06,7.184056332886356e-06,9.67140359115429e-06,2.8521231654393075e-06,4.401791058021258e-06,1.3825984041950804e-06,1.8136040174073104e-06,8.594260587251131e-06,2.161232890130426e-06,1.2273693733005898e-06
184,2.4647332533438955e-06,1.8256394702937586e-06,2.625864139870304e-06,1.5571642307631986e-06,4.583165056177272e-06,4.967145175210084e-06,1.8346764907112392e-06,7.02860058104166e-06,9.461926198982094e-06,2.847801133172854e-06,3.756534441723132e-06,1.2651039641671145e-06,1.8361148692446743e-06,8.547037205225625e-06,2.193031451503058e-06,1.2786842548719478e-06
185,2.5109542426391867e-06,1.8037843424329447e-06,2.5472669645243305e-06,1.5187349311400371e-06,4.64606113954646e-06,4.9371377500214245e-06,1.8438440754464572e-06,6.860929898687733e-06,9.22719398019169e-06,2.8385247511209115e-06,3.1704484629279348e-06,1.160239864213119e-06,1.865204105340353e-06,8.497501557116326e-06,2.2184811889223778e-06,1.3282863786436946e-06
186,2.548233433651852e-06,1.7828027250694475e-06,2.4688181282345177e-06,1.487927643890443e-06,4.692290393739888e-06,4.890575292985638e-06,1.8510456758123331e-06,6.6824471255181516e-06,8.97024336002992e-06,2.8237901129543636e-06,2.6414921690417315e-06,1.0675544501132859e-06,1.8997309183166124e-06,8.450866336362966e-06,2.237187036797169e-06,1.3754217997031271e-06
187,2.576200311517466e-06,1.7629446602051708e-06,2.391521246395699e-06,1.4648905188731403e-06,4.71974638232498e-06,4.8253109775154125e-06,1.855878538644409e-06,6.4953400291709945e-06,8.695388433131551e-06,2.80306197940473e-06,2.1674583348414957e-06,9.864895257770136e-07,1.938628580120356e-06,8.410970813266378e-06,2.2488514728334007e-06,1.41945032849924e-06
188,2.5953548115304246e-06,1.7443948395453984e-06,2.3162861661998025e-06,1.4496017584486582e-06,4.727839587802316e-06,4.740675617838548e-06,1.8585128456424196e-06,6.30246082003397e-06,8.407604440919424e-06,2.7758497424873074e-06,1.746052411200619e-06,9.163395735193487e-07,1.9810778207662624e-06,8.380221317998809e-06,2.2533562666537704e-06,1.4598533664939962e-06
189,2.6068018304547346e-06,1.727405495487938e-06,2.243866217824782e-06,1.4419107304957742e-06,4.717680815588119e-06,4.6377836115486764e-06,1.8596223156539737e-06,6.106984498825769e-06,8.11216988585474e-06,2.742103937893612e-06,1.3747876408478198e-06,8.563563433957924e-07,2.0264782626656494e-06,8.359607607850878e-06,2.2508175646427132e-06,1.4962474457982633e-06
190,2.6118108075473095e-06,1.7123001363695204e-06,2.1747008818323562e-06,1.4416773866996181e-06,4.691398942482497e-06,4.519218361454771e-06,1.8600055405563289e-06,5.911990627669488e-06,7.81458964407931e-06,2.7025638245749704e-06,1.0509003537528552e-06,8.058776468694766e-07,2.074240103427603e-06,8.348784277909077e-06,2.2415537909769946e-06,1.528447232124673e-06
191,2.611426463779341e-06,1.6994017175207111e-06,2.108857211629867e-06,1.448848507843648e-06,4.651178219086867e-06,4.388201139535301e-06,1.860265430444381e-06,5.7201296450724395e-06,7.520441161743155e-06,2.6586003754501934e-06,7.714177093810502e-07,7.643418535547953e-07,2.1235628176405225e-06,8.346593486674762e-06,2.2260560368592873e-06,1.5564876849938054e-06
192,2.6062549868821843e-06,1.688951872839367e-06,2.0461575850131466e-06,1.4634106740761597e-06,4.5987315454572945e-06,4.247846296855732e-06,1.860721139112997e-06,5.5335579606610455e-06,7.23488792612189e-06,2.611710890258215e-06,5.3331054191863e-07,7.311897602643972e-07,2.1733379847239745e-06,8.351927122718417e-06,2.2049725410175716e-06,1.5805032450805149e-06
193,2.5964521827428314e-06,1.6810134351092958e-06,1.986354866127268e-06,1.4853630832039996e-06,4.53526769498486e-06,4.100986985276919e-06,1.8614127490325253e-06,5.354194960053226e-06,6.962052202245721e-06,2.5632173332198397e-06,3.3356798257821346e-07,7.057700954135745e-07,2.2222189787019e-06,8.364393234315425e-06,2.1790207049832714e-06,1.600569929319816e-06
194,2.5818863372632922e-06,1.6754073065482892e-06,1.9291988553398536e-06,1.5147759285265066e-06,4.461606409377806e-06,3.950362206556656e-06,1.8621167011890417e-06,5.184055848791981e-06,6.70460982997423e-06,2.514352611356798e-06,1.6917379033092403e-07,6.873158385729299e-07,2.268792100076257e-06,8.384520114262465e-06,2.1488172022564896e-06,1.616674346182666e-06
195,2.562382765495725e-06,1.6717717109043835e-06,1.8744357881923148e-06,1.55181675719943e-06,4.378285696550509e-06,3.7987239937856716e-06,1.8624818560808575e-06,5.025306714888195e-06,6.463750787142425e-06,2.466372894797885e-06,3.708328573173103e-08,6.750049733254436e-07,2.3116991980557984e-06,8.413649865903523e-06,2.1147761283107547e-06,1.6287644415005302e-06
196,2.537949513339104e-06,1.6697415476508128e-06,1.8218567227917245e-06,1.5967403965099302e-06,4.285706022125836e-06,3.6487556540218848e-06,1.8622985806962821e-06,4.879985128127742e-06,6.239449430405025e-06,2.420429129254784e-06,-6.575975040184792e-08,6.680588185513652e-07,2.3498210494858216e-06,8.453705413377496e-06,2.077185105456044e-06,1.6367695062642962e-06
197,2.508913196522623e-06,1.669139476764299e-06,1.7713660172434266e-06,1.6499582775092985e-06,4.184340521143888e-06,3.502921419184573e-06,1.8616602255912058e-06,4.749710603321849e-06,6.0309115434539895e-06,2.377379922147658e-06,-1.4238489349451586e-07,6.657919942898562e-07,2.3827201294483334e-06,8.50697171882735e-06,2.0363584255747935e-06,1.6406029661276726e-06
198,2.4758857485374524e-06,1.670014177868465e-06,1.7229661486520041e-06,1.7121276174678453e-06,4.075002163140999e-06,3.3633625650526997e-06,1.8608303250933528e-06,4.635710476484276e-06,5.837067198991981e-06,2.3377649104895802e-06,-1.957550068678789e-07,6.676630019557688e-07,2.410951789735451e-06,8.576098334905073e-06,1.99274523426615e-06,1.6402298044883074e-06
199,2.439548447046299e-06,1.6724959700748454e-06,1.6766530018252712e-06,1.7840782454177375e-06,3.959124711147426e-06,3.2318681366974287e-06,1.8599971435295943e-06,4.5391209073667585e-06,5.6570651530691295e-06,2.301928193416969e-06,-2.287421157146032e-07,6.73383983895699e-07,2.435798197409587e-06,8.664226375791795e-06,1.946984906269707e-06,1.635818226048777e-06
200,2.4004275556971657e-06,1.6766601633279224e-06,1.6323073784940522e-06,1.8665848514526502e-06,3.838927226272762e-06,3.1098608179679674e-06,1.8591919146727369e-06,4.461258847328683e-06,5.490690533125853e-06,2.270173831354367e-06,-2.4411288275335243e-07,6.829517511198528e-07,2.4587729385611813e-06,8.774724193251385e-06,1.8998816128503417e-06,1.627860072851232e-06
201,2.358822625586188e-06,1.6825050657133858e-06,1.5896366823935392e-06,1.9601960537892495e-06,3.7172932651672975e-06,2.9983399850796053e-06,1.8583311709076772e-06,4.403650183521556e-06,5.33851082954985e-06,2.2428178082336707e-06,-2.444899864131913e-07,6.9653696590275e-07,2.481374805378626e-06,8.910352775591975e-06,1.8522594900912543e-06,1.6171296668401089e-06
202,2.314825064776397e-06,1.6899374399758576e-06,1.5481844541784891e-06,2.065220477381302e-06,3.5973392846637956e-06,2.897795385009424e-06,1.8572285212970193e-06,4.367806244869581e-06,5.201653181526044e-06,2.220103320904199e-06,-2.3227142956258136e-07,7.143558477564653e-07,2.5050216374428604e-06,9.072382675830045e-06,1.8048081690022226e-06,1.604517733747779e-06
203,2.2684382959114547e-06,1.6987003445876053e-06,1.5074752037313222e-06,2.181736885092513e-06,3.481881570428242e-06,2.8081571436676184e-06,1.855674180144965e-06,4.354855564261604e-06,5.081329047439275e-06,2.202094256233728e-06,-2.0954213137248354e-07,7.365868947265396e-07,2.5310106156118314e-06,9.26013420807125e-06,1.7580603533378776e-06,1.5908925084091796e-06
204,2.2199278672626184e-06,1.7083139592958607e-06,1.4672686012601008e-06,2.3095132089120547e-06,3.373076713158963e-06,2.728880076261104e-06,1.8536559279045637e-06,4.365190056114062e-06,4.978316501422642e-06,2.188619836856168e-06,-1.7804759230985207e-07,7.633295146412021e-07,2.560478707869139e-06,9.470875975012408e-06,1.7124590144418817e-06,1.5770534149528014e-06
205,2.170187930364639e-06,1.718143583307174e-06,1.4276719985403604e-06,2.4478962370689427e-06,3.272327434236244e-06,2.659170250110511e-06,1.8514677124824464e-06,4.3982599925006825e-06,4.892638132557765e-06,2.179243266417513e-06,-1.3924543398804107e-07,7.94600971190031e-07,2.594311343788249e-06,9.699923439698626e-06,1.668449155770824e-06,1.563707023528745e-06
206,2.120718321191981e-06,1.7276325290599622e-06,1.3889658374530064e-06,2.595776442071445e-06,3.180376526246733e-06,2.598148002659105e-06,1.8495988431881315e-06,4.4525276354943705e-06,4.82359835771433e-06,2.1732563355313964e-06,-9.437288728451712e-08,8.303404049008567e-07,2.633070599197336e-06,9.94117113401263e-06,1.6265676542534382e-06,1.5514285750075298e-06
207,2.0732361253951586e-06,1.7365507993270078e-06,1.3513559257987715e-06,2.751655255390605e-06,3.097519609757571e-06,2.544795761747539e-06,1.848617142948282e-06,4.525488201596992e-06,4.770126309368342e-06,2.169677798963545e-06,-4.449678007200462e-08,8.704266451276764e-07,2.6770240237573296e-06,1.0188569055141102e-05,1.5873987987003759e-06,1.540676749244295e-06
208,2.02933604615841e-06,1.7450407566941145e-06,1.3148993398678299e-06,2.913773799623122e-06,3.0238599285019283e-06,2.4978745202948117e-06,1.8490903342610197e-06,4.613733572621201e-06,4.731178101088766e-06,2.1672138650420594e-06,9.438170471603835e-09,9.147122205553998e-07,2.726158809380928e-06,1.0438472615956088e-05,1.551435269011989e-06,1.5318660812575196e-06
209,1.990391880540924e-06,1.7534282470145104e-06,1.2796055848257745e-06,3.08020939560557e-06,2.9594692580855773e-06,2.4560213777347945e-06,1.85148736929211e-06,4.713172633113667e-06,4.705857048230035e-06,2.1642784213300296e-06,6.657142838007173e-08,9.630109408111967e-07,2.7801320334617663e-06,1.0691728588379839e-05,1.5190949262836493e-06,1.525402291443498e-06
210,1.957523297448815e-06,1.7620279474157808e-06,1.245604598269965e-06,3.2488521886262306e-06,2.9043723428380154e-06,2.4178920361219546e-06,1.8561809667111878e-06,4.8194422813793635e-06,4.6931379456144825e-06,2.1591609266174658e-06,1.2610997943142134e-07,1.0150420231777817e-06,2.8383614608271435e-06,1.0954324373480123e-05,1.4908738712304014e-06,1.521653872372444e-06
211,1.931519059246891e-06,1.7711366162510346e-06,1.2132639454581225e-06,3.4173761895587423e-06,2.858428539687704e-06,2.382183959580099e-06,1.8635889743017966e-06,4.928311186816133e-06,4.691564885510067e-06,2.1503103449603776e-06,1.873163286636366e-07,1.0704188229726996e-06,2.900311607114252e-06,1.1236536057784102e-05,1.4673935388266813e-06,1.5208981576697508e-06
212,1.912800063763394e-06,1.7810911932772073e-06,1.1831506038325083e-06,3.583512020077864e-06,2.8213493462307437e-06,2.347755239157317e-06,1.8742628192599467e-06,5.035867908755849e-06,4.6992732383527864e-06,2.1366950986387438e-06,2.495053575425225e-07,1.1287045454388066e-06,2.9656562049369855e-06,1.1551271392454605e-05,1.4493086415578656e-06,1.523252833693867e-06
213,1.9014550809001e-06,1.7922002232134782e-06,1.1558639262168426e-06,3.745646969311281e-06,2.792997858500371e-06,2.3139924642988514e-06,1.8887826456115782e-06,5.138487591871926e-06,4.7141440053746416e-06,2.1180888279608512e-06,3.120580090116683e-07,1.1894550636889994e-06,3.0342248391710868e-06,1.1912173636004469e-05,1.4372081794023052e-06,1.5286458642184494e-06
214,1.8972784440421462e-06,1.8046094292873784e-06,1.1318865631324622e-06,3.903286220482474e-06,2.7736824237529133e-06,2.281078742837485e-06,1.9075606296721282e-06,5.2327199277942084e-06,4.7338003448817154e-06,2.0950673456957165e-06,3.7441997418067144e-07,1.2522160214961557e-06,3.1060188041074313e-06,1.2331865258433026e-05,1.4315409230876214e-06,1.5368619634461437e-06
215,1.8997781807085973e-06,1.818280406902508e-06,1.1115444487146738e-06,4.056969666640856e-06,2.7640625202336756e-06,2.249808193508064e-06,1.930741293340283e-06,5.315273265617816e-06,4.755714258962034e-06,2.068713444434289e-06,4.360934511598564e-07,1.3165715698766964e-06,3.1812851248751487e-06,1.2820788893183292e-05,1.4325456002588764e-06,1.5475748697708803e-06
216,1.9082201216984564e-06,1.8331261718196643e-06,1.095032198033597e-06,4.207766062325099e-06,2.764779533054238e-06,2.2211125954263496e-06,1.9582117749253406e-06,5.383187904963608e-06,4.777725055351745e-06,2.04022187025474e-06,4.966935650592298e-07,1.382275372302416e-06,3.2603829008501724e-06,1.3386803993381875e-05,1.4402085209928698e-06,1.560361563263544e-06
217,1.921743339448653e-06,1.8491785384382312e-06,1.0824225947851034e-06,4.3567036197668365e-06,2.7761756750777404e-06,2.1957167669011067e-06,1.9896028682946165e-06,5.434131325149941e-06,4.798531358169296e-06,2.0106297539388887e-06,5.560401542970101e-07,1.4493007510607055e-06,3.343482957579099e-06,1.4035104521828017e-05,1.4542436912160448e-06,1.5748132689109437e-06
218,1.9394670830434506e-06,1.8666129730022112e-06,1.0736743622554545e-06,4.504328745384443e-06,2.798178143156031e-06,2.1740496995784344e-06,2.0242977045962917e-06,5.466671224166643e-06,4.817616182281201e-06,1.9807745011592103e-06,6.141546738712026e-07,1.5177012180826838e-06,3.430335179538021e-06,1.4768065011356597e-05,1.4740821709510729e-06,1.590640989323357e-06
219,1.96048454483548e-06,1.8855755042038885e-06,1.0687013755454115e-06,4.650492493247144e-06,2.830214012944547e-06,2.1562478975075872e-06,2.061524381125637e-06,5.480404228936954e-06,4.834722053356662e-06,1.951355241661091e-06,6.711556536317824e-07,1.5874087587690736e-06,3.5201532094923707e-06,1.5585057217874757e-05,1.4988794444718087e-06,1.607585356835685e-06
220,1.9837653690955487e-06,1.9059627530140547e-06,1.0674596262326065e-06,4.794431296557941e-06,2.871113535388498e-06,2.1421632563076323e-06,2.1004293494386024e-06,5.475842113756411e-06,4.849329513121874e-06,1.922996477415057e-06,7.271628955132711e-07,1.6581243214155591e-06,3.611577100211904e-06,1.6482303058900324e-05,1.5275350697174357e-06,1.6252581146806122e-06
221,2.008136062303318e-06,1.9273576548508127e-06,1.069945382264679e-06,4.93499334930707e-06,2.919051016619258e-06,2.1313690832721786e-06,2.1400580320320893e-06,5.454042463946094e-06,4.860384507050428e-06,1.8963265449393747e-06,7.822661733560772e-07,1.7293262005854093e-06,3.7027582099067287e-06,1.7452780097735234e-05,1.5587546610097637e-06,1.64316055802349e-06
222,2.032383778913776e-06,1.9491301757362342e-06,1.076092128577044e-06,5.070771920329885e-06,2.971557653994442e-06,2.1231246739548934e-06,2.179406138154286e-06,5.4160891943602915e-06,4.866273473906045e-06,1.8719674021546667e-06,8.365419657962003e-07,1.8003579125081786e-06,3.7915342837605064e-06,1.8486170517998032e-05,1.5911855281421867e-06,1.6608563178248035e-06
223,2.0552884588837043e-06,1.9705308590202e-06,1.0856767322625026e-06,5.200137443330634e-06,3.0256784437643023e-06,2.1163306976444377e-06,2.2175702434362083e-06,5.362590742294679e-06,4.865083088760639e-06,1.8503974922170862e-06,8.900620253976713e-07,1.8704842223342566e-06,3.875524156027587e-06,1.956880757531056e-05,1.6235276870938692e-06,1.6781230649872013e-06
224,2.075531452263387e-06,1.9907100883798236e-06,1.0983755835874618e-06,5.321335724901762e-06,3.0783485011024786e-06,2.109562897793406e-06,2.2537661029782265e-06,5.293459433727416e-06,4.855073590569013e-06,1.8318460584618294e-06,9.42864189590311e-07,1.938813219296883e-06,3.952128087852055e-06,2.0684083635805574e-05,1.6545593893534389e-06,1.694990733023319e-06
225,2.0917372114752713e-06,2.0088137659731917e-06,1.1139669037845337e-06,5.4327099227312485e-06,3.1268629098366044e-06,2.101170593778217e-06,2.2872470942180875e-06,5.208178145583929e-06,4.83505622536893e-06,1.8162709398470368e-06,9.94957092122508e-07,2.0041729464359498e-06,4.018745173031317e-06,2.1813711469429465e-05,1.6831946776833098e-06,1.711656704190521e-06
226,2.102796363012058e-06,2.0242156993375366e-06,1.1324694750380033e-06,5.532946410987761e-06,3.1691728253089892e-06,2.0893720201646344e-06,2.3173380049163732e-06,5.106393977692271e-06,4.804595820861216e-06,1.8033281449778222e-06,1.0464055822632241e-06,2.065146417868227e-06,4.073355818236171e-06,2.2938942372912004e-05,1.7086031069020076e-06,1.7283359112391682e-06
227,2.10825702098646e-06,2.0366981309161416e-06,1.1540779740831302e-06,5.621245202884347e-06,3.203902498470989e-06,2.0724407183421725e-06,2.3434695170814832e-06,4.988485037774668e-06,4.764206189598799e-06,1.7923238220068093e-06,1.097391986261382e-06,2.1203538692945903e-06,4.1150748735003496e-06,2.4040537028763053e-05,1.7303014232876498e-06,1.7451676312191465e-06
228,2.108463741541277e-06,2.0464422590234638e-06,1.1790185905575153e-06,5.697358928150884e-06,3.2302303405920023e-06,2.0490678368866603e-06,2.3650934909346046e-06,4.855912575533855e-06,4.7154971769614696e-06,1.782258426696296e-06,1.148186202084084e-06,2.1688390177455824e-06,4.144284153079192e-06,2.509739816714862e-05,1.7482098545926205e-06,1.7622289334577123e-06
229,2.104326360155399e-06,2.0539117955479825e-06,1.207447026793872e-06,5.761404891116464e-06,3.247840413853739e-06,2.0186934373622142e-06,2.381693795030826e-06,4.711298899853527e-06,4.661099905508027e-06,1.7720533404303328e-06,1.199119572237114e-06,2.210296400889641e-06,4.162332807531532e-06,2.608471875409364e-05,1.7626208226065878e-06,1.7795551599603822e-06
230,2.0968906243238305e-06,2.0597484192918227e-06,1.2393718053445432e-06,5.813405704421463e-06,3.256978774431983e-06,1.98159407363582e-06,2.3930417702599806e-06,4.558205343201513e-06,4.604330149298517e-06,1.7609152359865779e-06,1.2505829195617268e-06,2.245033571296348e-06,4.170976091242769e-06,2.6973011156164172e-05,1.7740006861363217e-06,1.7971005350182178e-06
231,2.0869947084900847e-06,2.064674330848351e-06,1.2746465845482112e-06,5.852796767345661e-06,3.258414826786051e-06,1.9387197860024464e-06,2.39952314442628e-06,4.400693857151088e-06,4.5486806246375195e-06,1.748608810790436e-06,1.3029488864925547e-06,2.2737929482463858e-06,4.171902724244498e-06,2.7729452091981915e-05,1.782789225350519e-06,1.814726779421668e-06
232,2.07511619092351e-06,2.0693512040606167e-06,1.3131028343258407e-06,5.878251904301148e-06,3.253140297210141e-06,1.891359830159302e-06,2.4022634214341536e-06,4.2428222939341144e-06,4.497384670259149e-06,1.7353939633096087e-06,1.3564389119908808e-06,2.297559637215753e-06,4.166569462019531e-06,2.8322231163786014e-05,1.7893472468305374e-06,1.8322312862985738e-06
233,2.061347145258999e-06,2.074270375687077e-06,1.354733433717456e-06,5.887861567499247e-06,3.2419745005077106e-06,1.8408460062187029e-06,2.402921209474189e-06,4.08821495548399e-06,4.453311628403478e-06,1.721730388176807e-06,1.4110391890625128e-06,2.3173488363690213e-06,4.156115023620201e-06,2.8726871697754983e-05,1.7939200879414911e-06,1.8492826680174045e-06
234,2.0454777037332182e-06,2.079805872348496e-06,1.399746502248576e-06,5.879486249541592e-06,3.225398227748743e-06,1.7884795669342203e-06,2.403262503165258e-06,3.939883491341812e-06,4.419157451037915e-06,1.7080835550563247e-06,1.4664695432239591e-06,2.3339601076545513e-06,4.141187233243866e-06,2.893140827986315e-05,1.7966095769737604e-06,1.8652949061709674e-06
235,2.0271525817012498e-06,2.0863330367164592e-06,1.4484290014838005e-06,5.8512320149948515e-06,3.2036838905951983e-06,1.7355521650924267e-06,2.404809486968838e-06,3.8003474616491516e-06,4.3976658914517e-06,1.694886425577978e-06,1.5221643602015999e-06,2.34777188426164e-06,4.121791381314584e-06,2.8937066720775356e-05,1.7975073356562032e-06,1.8794510726000078e-06
236,2.0059787689853615e-06,2.0941980448406856e-06,1.500949750163903e-06,5.802030269649837e-06,3.177140419759583e-06,1.6832566483970407e-06,2.408716846862948e-06,3.6718260535577633e-06,4.391644025334418e-06,1.6824721013085907e-06,1.5772974115307489e-06,2.3586594801259122e-06,4.097284855242158e-06,2.8753784563098794e-05,1.7968541815222301e-06,1.890943545293874e-06
237,1.9815835341169808e-06,2.103625156555393e-06,1.5572904109575166e-06,5.732189614439575e-06,3.1462707038749914e-06,1.6325451476255154e-06,2.415753162023662e-06,3.5562526811183232e-06,4.40374033303831e-06,1.6709737206594267e-06,1.6309248378837706e-06,2.3660534102996746e-06,4.066633224602481e-06,2.8393585781114263e-05,1.7950275396964182e-06,1.8992299429139337e-06
238,1.9537568296901174e-06,2.1147280005302687e-06,1.6173601604376266e-06,5.64370321949505e-06,3.1117377189442135e-06,1.584075022563335e-06,2.42627367267528e-06,3.455116749763377e-06,4.436304557154724e-06,1.6603376536761685e-06,1.682218962373832e-06,2.3690915917803863e-06,4.028918460718951e-06,2.7866520921376866e-05,1.792455245420085e-06,1.9040901186071986e-06
239,1.922664293089586e-06,2.1275077373157434e-06,1.6811596063790918e-06,5.540064486293681e-06,3.074228432506464e-06,1.5382431553075739e-06,2.4401890928804143e-06,3.369346096710316e-06,4.491583905235181e-06,1.650437695865537e-06,1.7306151098188548e-06,2.3668268949218703e-06,3.98390372175244e-06,2.7181434483534782e-05,1.7895372530134637e-06,1.9055401298052859e-06
240,1.8889261112491185e-06,2.1418099346299886e-06,1.7488099520538863e-06,5.425551049905426e-06,3.0344255259943797e-06,1.4952382951673837e-06,2.4569655838428136e-06,3.2993360590884687e-06,4.5719085555135815e-06,1.6411937145077659e-06,1.7757500279773141e-06,2.358507024862742e-06,3.932399264022412e-06,2.634958498416521e-05,1.7865326673043213e-06,1.9037630754840117e-06
241,1.8534468383346968e-06,2.157405897293931e-06,1.820414690228178e-06,5.304341545206723e-06,2.99316663286161e-06,1.455079929173466e-06,2.475729682126692e-06,3.2450057593822974e-06,4.679459511182278e-06,1.6327035592406644e-06,1.8172839871583962e-06,2.3439015781911102e-06,3.876236892519732e-06,2.538786198134091e-05,1.783525474591725e-06,1.8990482715915871e-06
242,1.8171626581368107e-06,2.1741684521201747e-06,1.8959129691155786e-06,5.179899465112359e-06,2.951645839913719e-06,1.4176796426218893e-06,2.495491831035274e-06,3.2058862713118817e-06,4.8159143994397e-06,1.6253006059273078e-06,1.8548059629831645e-06,2.3235273925333425e-06,3.817868184382674e-06,2.431963238252259e-05,1.7805813017879753e-06,1.8917118947458705e-06
243,1.780966873441217e-06,2.192175628979138e-06,1.9750559811249478e-06,5.054748247848054e-06,2.9114118021436708e-06,1.3829555219986648e-06,2.5153643533717114e-06,3.181340640335124e-06,4.982496285028923e-06,1.6194031064917024e-06,1.8879243313668155e-06,2.2986215409320955e-06,3.7598428240204214e-06,2.317282734159165e-05,1.7779604939295343e-06,1.8820791208366795e-06
244,1.7458258647241421e-06,2.2116579779915904e-06,2.057452910753788e-06,4.930570076564086e-06,2.874074167951247e-06,1.3509370896950422e-06,2.534683864410515e-06,3.170783046855012e-06,5.180339649881251e-06,1.6153209930000163e-06,1.91640146898898e-06,2.2708883886190963e-06,3.7044366751197876e-06,2.1976429617984597e-05,1.7761928857284549e-06,1.8705153406853673e-06
245,1.7128522762468957e-06,2.232827224080544e-06,2.1426072657876174e-06,4.80849003964518e-06,2.840939354666167e-06,1.3217658792083974e-06,2.5531015117040765e-06,3.1737361887204792e-06,5.410647618766231e-06,1.6132440994246564e-06,1.9401074954521996e-06,2.2421859569587098e-06,3.653449974266917e-06,2.075724741612051e-05,1.7759633976585936e-06,1.8573742132125447e-06
246,1.6831909972011895e-06,2.255770026499298e-06,2.2299215903100206e-06,4.689299391616547e-06,2.8128319593883853e-06,1.2955916458592427e-06,2.5707237837520147e-06,3.189723886982097e-06,5.674532699439583e-06,1.6133264761121692e-06,1.958816394506709e-06,2.2142605441299236e-06,3.608061733674237e-06,1.953836780575291e-05,1.7778980741352116e-06,1.8428587136744858e-06
247,1.6578286203333956e-06,2.280531850923409e-06,2.318626603813257e-06,4.573448597807667e-06,2.7900969964728166e-06,1.2724733188040076e-06,2.588252762979628e-06,3.2180297824919688e-06,5.973015504474133e-06,1.6156671567498697e-06,1.972066892230247e-06,2.18854969373323e-06,3.5687378470858387e-06,1.8339432598361144e-05,1.7823958368028064e-06,1.8269561801946983e-06
248,1.6375045191727782e-06,2.3072238183521073e-06,2.4076450420760193e-06,4.460907471552754e-06,2.7726658491350406e-06,1.2523507632025676e-06,2.606963310240714e-06,3.2574496128164376e-06,6.307250448945065e-06,1.6201985208526078e-06,1.9791611397904573e-06,2.166083505609941e-06,3.53525255163998e-06,1.7177617532543285e-05,1.7895675042983304e-06,1.809504457019295e-06
249,1.6227655389266177e-06,2.3359748343143192e-06,2.495490980760565e-06,4.3511394080610325e-06,2.7602105222767084e-06,1.2350357594886616e-06,2.628431601342275e-06,3.306275846059428e-06,6.6784050936697295e-06,1.626645870713415e-06,1.9792144503842075e-06,2.1475117778413524e-06,3.506829988666789e-06,1.6068048262010788e-05,1.7992524849705656e-06,1.790268844155606e-06
250,1.6140553135396446e-06,2.366878688866531e-06,2.580298417586871e-06,4.243303975955944e-06,2.752384221675524e-06,1.2202263112991746e-06,2.6541762441252615e-06,3.362569063798585e-06,7.0871281132733774e-06,1.6345880209847348e-06,1.9713029132919777e-06,2.1331794348042484e-06,3.4823055296927566e-06,1.5023374840091949e-05,1.8111147428187236e-06,1.7689774616354443e-06
251,1.6117150033406337e-06,2.4000917843294826e-06,2.6600148818451293e-06,4.136534631532981e-06,2.7489003304467288e-06,1.2076269535181293e-06,2.6854323964200347e-06,3.424426521912184e-06,7.533127964912937e-06,1.643518493164103e-06,1.9547726762256118e-06,2.123138278998161e-06,3.4601695101685825e-06,1.4053136517913686e-05,1.82477122267835e-06,1.7454006212613781e-06
252,1.6159211867122904e-06,2.4359335784637305e-06,2.732704502703469e-06,4.030069693285626e-06,2.7493489402837753e-06,1.1971374298199557e-06,2.723061633326862e-06,3.4899362671919773e-06,8.014979039366611e-06,1.6529156864508344e-06,1.929484160084922e-06,2.1171472546858092e-06,3.438588419263223e-06,1.3163512179541498e-05,1.8398120327352138e-06,1.7195096968247295e-06
253,1.6266383359622776e-06,2.4748246647589272e-06,2.7968600508129966e-06,3.923233299532424e-06,2.7529955847353146e-06,1.1889450264021344e-06,2.7675572244235544e-06,3.5568909398310304e-06,8.529943353357587e-06,1.6624070685589407e-06,1.8957492704810174e-06,2.1147955526258748e-06,3.41559668941323e-06,1.235745635121579e-05,1.8557221603336651e-06,1.6916251138835682e-06
254,1.643591782909827e-06,2.5170911365919295e-06,2.8516351744935685e-06,3.8154560372723785e-06,2.758747814471096e-06,1.1834366983189053e-06,2.8191507266048576e-06,3.622593736386377e-06,9.073756195589676e-06,1.6719557900707806e-06,1.8541477907061092e-06,2.115741448872298e-06,3.38941846819328e-06,1.163503306361704e-05,1.871869258387211e-06,1.6624433170142633e-06
255,1.6663082573069103e-06,2.562744550385935e-06,2.8968906124137586e-06,3.7064285067478565e-06,2.7653263579151816e-06,1.1810688043700883e-06,2.8778743217495788e-06,3.6839205254108146e-06,9.640411473497657e-06,1.681898957880085e-06,1.8055590538848125e-06,2.119902806040658e-06,3.358858090337105e-06,1.0993936411589706e-05,1.8876017287776051e-06,1.6329114947605024e-06
256,1.6943181257714082e-06,2.6113177411871606e-06,2.93301407714685e-06,3.596259241111666e-06,2.77159794708832e-06,1.1823244591987211e-06,2.943488651059444e-06,3.737605072116922e-06,1.0222116560138121e-05,1.6928054216788643e-06,1.7513112907189755e-06,2.127413508402442e-06,3.3237266632527427e-06,1.0430115876840888e-05,1.9023680857552348e-06,1.6040146748945448e-06
257,1.7274804292535653e-06,2.661773191475195e-06,2.9606409608747216e-06,3.4854936961631465e-06,2.776860335130667e-06,1.1876637720365935e-06,3.0153923713811398e-06,3.78070730010184e-06,1.0809698385539012e-05,1.7052898222694928e-06,1.693107059716331e-06,2.1383534720848705e-06,3.2850500811208625e-06,9.93824502799171e-06,1.915791361109397e-06,1.5766026522175176e-06
258,1.766168735629837e-06,2.7124962295446304e-06,2.9804446261630625e-06,3.3750306921574285e-06,2.7808697575381728e-06,1.1974160118418384e-06,3.0925725917020375e-06,3.8111763244467613e-06,1.1393488509106198e-05,1.7199068081351403e-06,1.6327214638353455e-06,2.15250131950194e-06,3.2448038380319755e-06,9.511867915109959e-06,1.9277193098109026e-06,1.5513308291422069e-06
259,1.8110959559025525e-06,2.7614483066298775e-06,2.9930167868709503e-06,3.266022662977734e-06,2.78361384548086e-06,1.211716190631443e-06,3.1735998328879648e-06,3.828332927750854e-06,1.1964353549348114e-05,1.737080614753224e-06,1.5717445152791091e-06,2.169336026416202e-06,3.2053298566043473e-06,9.143448023360126e-06,1.9383054704161887e-06,1.52864965925397e-06
260,1.862938202660379e-06,2.806548153854108e-06,2.99875850866305e-06,3.1597022787684025e-06,2.7849898451788103e-06,1.2305075595200066e-06,3.2566641309314633e-06,3.8331086841846036e-06,1.2514391740587891e-05,1.7570131203785177e-06,1.5114823641912239e-06,2.1882742081012284e-06,3.1689273135968094e-06,8.824825886169777e-06,1.9480728244134407e-06,1.508774303554445e-06
261,1.9220921050623046e-06,2.846183570713111e-06,2.9978530795645016e-06,3.057093392861624e-06,2.7845955160660023e-06,1.253547918929613e-06,3.339593089963209e-06,3.827937533745973e-06,1.3036977091063004e-05,1.779663943130788e-06,1.4529316734893283e-06,2.208895681797022e-06,3.137770476177781e-06,8.548214538817503e-06,1.957846159101005e-06,1.491680713748073e-06
262,1.9886348777661147e-06,2.8795446913409673e-06,2.990511183141331e-06,2.9587900650661713e-06,2.7818134005355032e-06,1.2804119955818776e-06,3.4199203524662436e-06,3.816298521739243e-06,1.3526154498883277e-05,1.804817583272363e-06,1.3967629844729856e-06,2.2308897238199497e-06,3.1137971059855492e-06,8.307172232751006e-06,1.9685439077647102e-06,1.4771749967816684e-06
263,2.062371069379636e-06,2.906489379464193e-06,2.9774033198036453e-06,2.864944858637232e-06,2.7761541369188413e-06,1.3105348748441705e-06,3.495107066872457e-06,3.8020851480791555e-06,1.397554061727138e-05,1.8320792790552375e-06,1.343328802201841e-06,2.253789344350274e-06,3.098445105645299e-06,8.096884712022719e-06,1.9809214593371165e-06,1.4649914922265688e-06
264,2.142978822345017e-06,2.927033234388742e-06,2.959900420960546e-06,2.775338537650825e-06,2.7675249420277164e-06,1.3433006283588602e-06,3.562836824586613e-06,3.7890662123871175e-06,1.4377110902062722e-05,1.8607727209000868e-06,1.2927397386416862e-06,2.2768313333297474e-06,3.0924727369001735e-06,7.913569794017233e-06,1.9953726688980044e-06,1.4548449437650947e-06
265,2.2302674074023365e-06,2.940932987833542e-06,2.939906033950591e-06,2.689432954976736e-06,2.756149358850592e-06,1.3781207299781292e-06,3.621297317771499e-06,3.7805824734456784e-06,1.472074471667558e-05,1.8898940258189065e-06,1.2450162360152567e-06,2.299016889154479e-06,3.0959465851909303e-06,7.753390711998057e-06,2.011880329093082e-06,1.4464256991805897e-06
266,2.3243338125783564e-06,2.947703335444604e-06,2.9194141400238342e-06,2.6064970683631026e-06,2.7423135832511726e-06,1.4144793467860498e-06,3.669421570386364e-06,3.7794228005007196e-06,1.499519585392932e-05,1.918186783850026e-06,1.2002309364219132e-06,2.319144190600004e-06,3.1083059298171545e-06,7.611682811717235e-06,2.030162427264274e-06,1.4393930022206114e-06
267,2.4254353142027696e-06,2.946931276808681e-06,2.9000832226205917e-06,2.5258603890566957e-06,2.726244697246548e-06,1.451950203958252e-06,3.7070090162364017e-06,3.787738954492567e-06,1.5190128011823601e-05,1.9443058259932364e-06,1.1585416551338564e-06,2.3357698161588944e-06,3.1284423865047836e-06,7.4831319731992774e-06,2.0499462410720156e-06,1.4334290872222372e-06
268,2.5336895222302937e-06,2.9385368421551446e-06,2.883046420754696e-06,2.4472035594280332e-06,2.708109816883944e-06,1.4901575005460412e-06,3.7346740581745126e-06,3.806940901413202e-06,1.529841491687099e-05,1.967062061269029e-06,1.120117718303997e-06,2.3472526463564174e-06,3.1548136799406818e-06,7.362679535110163e-06,2.0711448118125e-06,1.4283558825420547e-06
269,2.6488381827150103e-06,2.9228349412693868e-06,2.868935027338572e-06,2.370748231236627e-06,2.6881568210898083e-06,1.5287195247072591e-06,3.7536748961835886e-06,3.837613351495925e-06,1.5318043593360697e-05,1.98563592196027e-06,1.0850526392510951e-06,2.351894316659759e-06,3.18562501472817e-06,7.246288878286416e-06,2.093796290826124e-06,1.4241764811795894e-06
270,2.770154304877884e-06,2.9004798651680765e-06,2.857924965722993e-06,2.2972498736071636e-06,2.6670809347057194e-06,1.5672759020113967e-06,3.7656600611568507e-06,3.87947211195444e-06,1.5252710462683236e-05,1.9995788125253486e-06,1.0533556708717899e-06,2.3480866773407494e-06,3.219026288574267e-06,7.131089852871307e-06,2.1179682403712968e-06,1.42093250562139e-06
271,2.8964089366753717e-06,2.8723413199071974e-06,2.849756391966544e-06,2.2277766075408136e-06,2.646227140935917e-06,1.6055454764566822e-06,3.7722931673136023e-06,3.931352778046506e-06,1.5110264371454562e-05,2.0087415260774934e-06,1.025012840818829e-06,2.3344380686667124e-06,3.253255976941101e-06,7.015276172135088e-06,2.143777363252123e-06,1.4185475674983649e-06
272,3.0258542652207547e-06,2.839311362002503e-06,2.843785294748856e-06,2.163386583593334e-06,2.6272960496500874e-06,1.6432774225379403e-06,3.7748114341946478e-06,3.991284323434055e-06,1.4899644066839911e-05,2.013378340449591e-06,1.0000017349197396e-06,2.3099011681656954e-06,3.28672182216454e-06,6.898293281287785e-06,2.1713306977980433e-06,1.4169155633900123e-06
273,3.1562299095003906e-06,2.8021551863622886e-06,2.8390547411420378e-06,2.1048856917725197e-06,2.611958135375339e-06,1.680166439012561e-06,3.7737136190443667e-06,4.056678571121095e-06,1.4628552399709113e-05,2.0142069635407463e-06,9.782306760967762e-07,2.2738886209722017e-06,3.317977724873756e-06,6.781208193180673e-06,2.2005364231459603e-06,1.416194144132413e-06
274,3.284763725709324e-06,2.7615169685301887e-06,2.8344427005926933e-06,2.0527229059776126e-06,2.6017681518306246e-06,1.7159438289654838e-06,3.768675198366423e-06,4.12450603287716e-06,1.4303181357601864e-05,2.0121976345824254e-06,9.595122634949377e-07,2.2262794236451793e-06,3.3456655619847363e-06,6.66676974231613e-06,2.230990002694728e-06,1.4169799853378085e-06
275,3.408244233395722e-06,2.7180104983155653e-06,2.8289288933025007e-06,2.0069458676980236e-06,2.5981594355294683e-06,1.7506695328549638e-06,3.758640581511342e-06,4.191314804348034e-06,1.3929041259033321e-05,2.0084017490945365e-06,9.436138392197502e-07,2.1672642527274407e-06,3.36868737896261e-06,6.558946386215681e-06,2.261966715790112e-06,1.4201789096917752e-06
276,3.523337128123408e-06,2.672280655320446e-06,2.8218447251630494e-06,1.967198063445415e-06,2.602323061927327e-06,1.7849733976434621e-06,3.7420583972960036e-06,4.253227675495967e-06,1.3511652782945887e-05,2.0040505701685046e-06,9.303313723111887e-07,2.097137020331427e-06,3.3865674661776557e-06,6.462090378619118e-06,2.2924043187766454e-06,1.426718993463117e-06
277,3.627120585482779e-06,2.6250424856149774e-06,2.8130417715244167e-06,1.9328407246146646e-06,2.6151538151465353e-06,1.8199850684962095e-06,3.7172106045493797e-06,4.306232177348871e-06,1.3056867611982294e-05,2.0006631276853373e-06,9.195558060463974e-07,2.0161867121279493e-06,3.399559145490595e-06,6.380046885239903e-06,2.3209164694242598e-06,1.4373324507287183e-06
278,3.717577194209308e-06,2.5771101370889877e-06,2.8030138622959374e-06,1.9032305330238562e-06,2.6373422821855417e-06,1.856987322962413e-06,3.682555273874776e-06,4.346812497880981e-06,1.2571004071479082e-05,1.9999261154183475e-06,9.11314358724892e-07,1.924725627910064e-06,3.408361014849873e-06,6.3155637353606645e-06,2.34594974604017e-06,1.4524703866011435e-06
279,3.793830218796269e-06,2.5293216632022007e-06,2.7928580958850657e-06,1.8780230508919753e-06,2.669438289285803e-06,1.8970770504881165e-06,3.6370803158784085e-06,4.372571432071203e-06,1.20610279349415e-05,2.0034721902224445e-06,9.057546085526641e-07,1.8231281169028872e-06,3.413795623304238e-06,6.270338309914498e-06,2.366055446056042e-06,1.4722876065582574e-06
280,3.856095821602941e-06,2.482337637815184e-06,2.7839680354823625e-06,1.8572814861769305e-06,2.7118595678905143e-06,1.9410670241835696e-06,3.5806096810446335e-06,4.38245444749755e-06,1.153484103305776e-05,2.012741763601399e-06,9.030583456414181e-07,1.7117711160058144e-06,3.4166928970359174e-06,6.245899157481468e-06,2.3802007796842104e-06,1.4966482387565021e-06
281,3.905347397107578e-06,2.4365207580425634e-06,2.7776677549951128e-06,1.8413005496940989e-06,2.764978458621282e-06,1.989629113464708e-06,3.5138778275260194e-06,4.376500107691388e-06,1.1001362568638214e-05,2.0289009808667577e-06,9.033245012228178e-07,1.5910202118701894e-06,3.417821674802917e-06,6.244921770032826e-06,2.3880570519173005e-06,1.5251520477318232e-06
282,3.9427409146655734e-06,2.3920856886922048e-06,2.775076689804958e-06,1.830320208640119e-06,2.82917759408932e-06,2.0434841853711873e-06,3.4383285539188735e-06,4.355333476045379e-06,1.0470041596441967e-05,2.052762113867822e-06,9.064903656444821e-07,1.4614429212056844e-06,3.417676878214205e-06,6.271869228590752e-06,2.390111758173216e-06,1.5571674864830801e-06
283,3.969123340928317e-06,2.349390148327685e-06,2.7771466836788445e-06,1.8243867936499922e-06,2.904684152713848e-06,2.103450788271929e-06,3.3557900554040302e-06,4.3197061549435655e-06,9.949909573990814e-06,2.084754890426062e-06,9.123243536702185e-07,1.3240738017459418e-06,3.4162413766924322e-06,6.332431080093426e-06,2.3874586805490815e-06,1.5918586207986832e-06
284,3.9849182056654185e-06,2.3090677644972736e-06,2.7846217472542266e-06,1.823435690140804e-06,2.9913127076394392e-06,2.1703541087862943e-06,3.268153447238434e-06,4.2702941946167775e-06,9.448807616870549e-06,2.1249346446773846e-06,9.204553747421912e-07,1.1804153000700094e-06,3.4128996065122813e-06,6.432789180230498e-06,2.381356664970255e-06,1.62828069769763e-06
285,3.990289077929816e-06,2.2718778880612003e-06,2.7979034099119537e-06,1.8274936673470504e-06,3.0883340724499287e-06,2.2449050740101067e-06,3.177135068845265e-06,4.207766907398075e-06,8.973356945716123e-06,2.172963220089754e-06,9.303919812182589e-07,1.0321804635564778e-06,3.406469895928999e-06,6.5795875567053885e-06,2.372849241714408e-06,1.6655803786526446e-06
286,3.98539856270241e-06,2.2384170503806107e-06,2.8170169655381123e-06,1.836851157365711e-06,3.194456314181405e-06,2.3275880170810107e-06,3.084213240533511e-06,4.132965344901445e-06,8.529470860420233e-06,2.228091130098962e-06,9.415530678794176e-07,8.810382767860472e-07,3.3953650898660815e-06,6.779928267232472e-06,2.3626001422923686e-06,1.703112425352333e-06
287,3.970691400425815e-06,2.208907860474517e-06,2.841759363101572e-06,1.85205443059947e-06,3.307856117952825e-06,2.418538790428372e-06,2.9906939724897423e-06,4.046983511326491e-06,8.122617571475234e-06,2.2891893341134182e-06,9.533501004245923e-07,7.28548754099458e-07,3.377974182377257e-06,7.040729898400902e-06,2.3508557975712008e-06,1.7403223897129772e-06
288,3.947055224091478e-06,2.183134168116405e-06,2.8718376779153842e-06,1.8736881501006275e-06,3.426337435948813e-06,2.5174541186824475e-06,2.897723172863765e-06,3.951024694896297e-06,7.757475533718926e-06,2.354812681618328e-06,9.653164827128601e-07,5.763080019631199e-07,3.353124345473554e-06,7.3678968523467366e-06,2.3374787206454547e-06,1.7765462337577217e-06
289,3.915717865490295e-06,2.160498131501039e-06,2.9068206043970196e-06,1.9021268154025928e-06,3.5476473567499354e-06,2.6236212282334174e-06,2.8062565197732903e-06,3.846071841536553e-06,7.437463442672346e-06,2.4232400032096215e-06,9.772527015373092e-07,4.262100637362292e-07,3.320330950041497e-06,7.76586459482667e-06,2.3221602966275285e-06,1.8109090701190824e-06
290,3.877948777253107e-06,2.140201713351479e-06,2.9460820420531936e-06,1.937433762690696e-06,3.669758095154306e-06,2.7360687886749262e-06,2.7171793405871713e-06,3.732598477269106e-06,7.164579067193229e-06,2.4924340812284295e-06,9.892730375755283e-07,2.8063781519776734e-07,3.27976846540951e-06,8.237485797363915e-06,2.304824889704254e-06,1.8423665923601439e-06
291,3.834782144661965e-06,2.121516260914601e-06,2.9889085802976987e-06,1.9794205468947288e-06,3.7908784521272563e-06,2.853689522750478e-06,2.631525195722892e-06,3.610582061344675e-06,6.9393622962569445e-06,2.559941058930229e-06,1.0016661101645564e-06,1.4242611117387677e-07,3.2321595815770365e-06,8.78404999580233e-06,2.285909528271906e-06,1.8698962866515246e-06
292,3.7869021034131113e-06,2.104010364187979e-06,3.034541143220974e-06,2.027801012061692e-06,3.909199035820225e-06,2.9751831000245237e-06,2.550519307735194e-06,3.479862193968537e-06,6.760818843440719e-06,2.6228645706241637e-06,1.0147101297922378e-06,1.4694945345202751e-08,3.178695268599108e-06,9.405534359796773e-06,2.2662276207534966e-06,1.8926866505817494e-06
293,3.7346649736155074e-06,2.087578271653311e-06,3.082018961309591e-06,2.0823456148941594e-06,4.022689274609984e-06,3.098862890044839e-06,2.475367360436626e-06,3.3406388357038494e-06,6.626497437863855e-06,2.678065526249764e-06,1.0285967265613236e-06,-9.922264235444005e-08,3.120860232215802e-06,1.0101073053576731e-05,2.2465820030724135e-06,1.910076968171185e-06
294,3.6782194240900565e-06,2.072251755065505e-06,3.130097914919855e-06,2.142933001090323e-06,4.129275215523335e-06,3.2225708854542587e-06,2.4069929474193583e-06,3.1938681521377844e-06,6.532865088221115e-06,2.7226085463213095e-06,1.0434154409811127e-06,-1.9573206261890652e-07,3.0601407049722655e-06,1.0869143765367321e-05,2.227486010444746e-06,1.92130310369673e-06
295,3.6177677997166747e-06,2.0580125013432296e-06,3.1774081376282656e-06,2.209449362075848e-06,4.227296118285016e-06,3.3439505106450684e-06,2.3458962210780444e-06,3.04139089649898e-06,6.475820405842279e-06,2.754317538557994e-06,1.0591478332346992e-06,-2.709084453725508e-07,2.9978011387094634e-06,1.1707121589332003e-05,2.2091482584958223e-06,1.9253868420509094e-06
296,3.5539341480476136e-06,2.044790461262073e-06,3.222694675202961e-06,2.2815855965058618e-06,4.315860507789477e-06,3.4610109279588285e-06,2.2921008934537397e-06,2.88573382736329e-06,6.451062812488595e-06,2.772197216541586e-06,1.0757052500665079e-06,-3.204438951149808e-07,2.9347807140032687e-06,1.2610533307120117e-05,2.1916495822328942e-06,1.9213684586784082e-06
297,3.487997597810257e-06,2.032520251048715e-06,3.264983607857593e-06,2.358683446330452e-06,4.394980903061298e-06,3.5725060552327568e-06,2.24514403033717e-06,2.7296842184835644e-06,6.4542370187769065e-06,2.7764052785489664e-06,1.0929822809676016e-06,-3.39640381639666e-07,2.8716511303910263e-06,1.3572669064326289e-05,2.175101344558711e-06,1.908717279505386e-06
298,3.4217346565290734e-06,2.0210638599635155e-06,3.303615140293191e-06,2.4397414388332537e-06,4.4655508301439226e-06,3.67776291525124e-06,2.2041722827939507e-06,2.5758473877601363e-06,6.480925784029828e-06,2.7677336812572323e-06,1.1108557623545513e-06,-3.2346902105047265e-07,2.80866267296984e-06,1.458487852005732e-05,2.159681519992997e-06,1.8875124042948719e-06
299,3.35692807775071e-06,2.010116249301972e-06,3.3381091696413716e-06,2.5234906769449873e-06,4.529085217367176e-06,3.7762452801702577e-06,2.168201780974256e-06,2.426370074142121e-06,6.5265761887091825e-06,2.7471319293060483e-06,1.1291404345505344e-06,-2.6663485893780533e-07,2.745871013026163e-06,1.5637180384899983e-05,2.1456638365700275e-06,1.8582248709595076e-06
300,3.2949018281889018e-06,1.999284168737147e-06,3.3679263261956896e-06,2.608402501721511e-06,4.58721073466457e-06,3.867400915119505e-06,2.136470272100282e-06,2.2828963712900112e-06,6.586523051502719e-06,2.715685294034803e-06,1.147563288283864e-06,-1.6358777958875888e-07,2.6833418234702426e-06,1.6718424176981806e-05,2.133460770526464e-06,1.8214818473118114e-06
301,3.236302386330869e-06,1.988253382677888e-06,3.3922935502452124e-06,2.692748703498696e-06,4.641171811121205e-06,3.95075795705078e-06,2.1087128230355803e-06,2.1467006869535663e-06,6.656181556903035e-06,2.6747225282395184e-06,1.1658003182801958e-06,-8.469065478670751e-09,2.6214903765626917e-06,1.7815979625378133e-05,2.1235487618212415e-06,1.7781461142836436e-06
302,3.181052155458322e-06,1.9768943490542383e-06,3.4102302968413606e-06,2.7748935685310844e-06,4.691602600166166e-06,4.025837252473062e-06,2.085251137717059e-06,2.0188397781734047e-06,6.731224789661513e-06,2.625686916665948e-06,1.1835604509887884e-06,2.0496245370802633e-07,2.5613999089499515e-06,1.8916213476910015e-05,2.1162780124495054e-06,1.7294616501476429e-06
303,3.1284357499090726e-06,1.9652930185121554e-06,3.4207616070723956e-06,2.8536295303076956e-06,4.738554431709523e-06,4.0919465042618084e-06,2.0668841111091717e-06,1.9001972640746681e-06,6.807595419656885e-06,2.5699702797120136e-06,1.2006200668151425e-06,4.833020495403625e-07,2.504772807626203e-06,2.000646806702174e-05,2.1117114004915217e-06,1.6769632261454205e-06
304,3.0773444843464006e-06,1.953697807633459e-06,3.4231318641502e-06,2.928234545134051e-06,4.781636582878837e-06,4.148179303122311e-06,2.054618543149822e-06,1.7915407097302094e-06,6.881428723524525e-06,2.5089581172933716e-06,1.216772588270904e-06,8.3334201115598e-07,2.4534830972799523e-06,2.107715536130321e-05,2.1096339332658555e-06,1.6222318849836898e-06
305,3.0265339721002495e-06,1.9423667902944806e-06,3.4167871239521777e-06,2.998260837544997e-06,4.8200931970827505e-06,4.193451108257001e-06,2.0493644203107636e-06,1.6937235616950945e-06,6.948870593808983e-06,2.44410205599693e-06,1.2317891203643946e-06,1.2619450815654073e-06,2.4091255288221084e-06,2.212218454958617e-05,2.109751066062419e-06,1.566682819550581e-06
306,2.9747177729690008e-06,1.9314018581973227e-06,3.4011007802387843e-06,3.0632990454477643e-06,4.852762158606884e-06,4.226393975747824e-06,2.051744489442191e-06,1.6078313098601584e-06,7.005758384667671e-06,2.3767865232335107e-06,1.2454340541573972e-06,1.7760838708845315e-06,2.372845379542834e-06,2.313744684135173e-05,2.111881858658606e-06,1.5114774903574123e-06
307,2.920573271436832e-06,1.920692817291632e-06,3.3751349592109065e-06,3.122817665403105e-06,4.8782262103668205e-06,4.245443495728616e-06,2.0620412975156848e-06,1.5350739279425837e-06,7.047779214019696e-06,2.308106214298275e-06,1.2574745729368895e-06,2.3830254382143646e-06,2.3453414754523355e-06,2.411822581802582e-05,2.115955393120046e-06,1.457552381317372e-06
308,2.8629013766103652e-06,1.9099685700769462e-06,3.3377456419127382e-06,3.176007257894337e-06,4.895383349696049e-06,4.2493101754733545e-06,2.0802369918800114e-06,1.4765609928990553e-06,7.071682224430214e-06,2.2387800014043064e-06,1.2676563528732404e-06,3.090523547583985e-06,2.326875138618691e-06,2.5056730612467165e-05,2.121880646311459e-06,1.4056597293770307e-06
309,2.800993221675103e-06,1.8988381315122822e-06,3.287980552258245e-06,3.2216928152672303e-06,4.904044916107528e-06,4.237428640628423e-06,2.106144105119657e-06,1.433181729841927e-06,7.076792715325928e-06,2.169302769346202e-06,1.2756974851897318e-06,3.9068437263398915e-06,2.317274773806184e-06,2.5941059333670262e-05,2.1294870147440966e-06,1.3563666948297837e-06
310,2.734933232459142e-06,1.8868072075540888e-06,3.2254668172059943e-06,3.258480361954427e-06,4.905023715283651e-06,4.209900199516831e-06,2.139570435285279e-06,1.4056394754936231e-06,7.06554697970466e-06,2.1003089942889867e-06,1.281353889492764e-06,4.840522221920113e-06,2.3159442166391486e-06,2.6756453997530704e-05,2.138573566239268e-06,1.3100858835646585e-06
311,2.665517741313893e-06,1.8734196040556294e-06,3.1505894565701106e-06,3.2850765932062303e-06,4.899654812017128e-06,4.167003149266243e-06,2.1803937336120964e-06,1.3945456479943689e-06,7.042649351498759e-06,2.0328700514516193e-06,1.2844916456418246e-06,5.8999050367098035e-06,2.3218558375681736e-06,2.7488367209659793e-05,2.1489587637176975e-06,1.2671669992947405e-06
312,2.593853834557251e-06,1.8585156979431085e-06,3.0644678402805456e-06,3.3005527295974557e-06,4.889189937188681e-06,4.1088862860005524e-06,2.228502611253709e-06,1.40048434450573e-06,7.013485064897836e-06,1.9684051585182744e-06,1.2850626534913906e-06,7.092637047110335e-06,2.3335678005466527e-06,2.8125715691152202e-05,2.1604918210217033e-06,1.2279508172414789e-06
313,2.5211026170258493e-06,1.8423197147066824e-06,2.9688084618832444e-06,3.304440060187586e-06,4.874531010695096e-06,4.035731480875164e-06,2.283652584998843e-06,1.424035144968309e-06,6.982902252599559e-06,1.9083345222488203e-06,1.2830830544306049e-06,8.425313886923777e-06,2.349346050691298e-06,2.8662785635800994e-05,2.173030930959926e-06,1.1927196020189953e-06
314,2.4485753423145206e-06,1.825241311203029e-06,2.8656804666139007e-06,3.2967049971656982e-06,4.8562125955662875e-06,3.947904457178212e-06,2.345326272009451e-06,1.4657679016042163e-06,6.954848001993623e-06,1.853832723756259e-06,1.2787390446423933e-06,9.90337641663609e-06,2.3674146326297386e-06,2.90991743496573e-05,2.1863880875457535e-06,1.1616353240534294e-06
315,2.37783090583366e-06,1.8076633014369068e-06,2.7572678113551182e-06,3.27771201569001e-06,4.83429924590301e-06,3.845839919421473e-06,2.4127122909894045e-06,1.5262191177902876e-06,6.932295139470242e-06,1.8057634650176099e-06,1.2724743653915719e-06,1.1531078255537389e-05,2.386211504148466e-06,2.9437993395862585e-05,2.200359409382551e-06,1.1347723899368301e-06
316,2.310492713721759e-06,1.7899075802934696e-06,2.6456782730658964e-06,3.2482386426109884e-06,4.808315118315413e-06,3.7301166114999407e-06,2.4848235388809998e-06,1.6058658821608766e-06,6.916982838575057e-06,1.7646982721787639e-06,1.2649392888859081e-06,1.3311291489058099e-05,2.4044657575462814e-06,2.96829619124313e-05,2.21484462448864e-06,1.112222765422857e-06
317,2.247953571019235e-06,1.7722625598994876e-06,2.5328203869412202e-06,3.20951329245376e-06,4.777416047593765e-06,3.60190048712982e-06,2.560625590351187e-06,1.705099085289769e-06,6.909176303220323e-06,1.7309578296105446e-06,1.2569241191986516e-06,1.5245149583166007e-05,2.421162621577818e-06,2.9835236724765483e-05,2.2298204143464817e-06,1.0941699720107012e-06
318,2.1912125272039114e-06,1.7549655579818467e-06,2.420289689802283e-06,3.1632169928932296e-06,4.740628598943341e-06,3.46328451530639e-06,2.6390744587685466e-06,1.8241686465674848e-06,6.907648526468266e-06,1.704643415188531e-06,1.2493335095551729e-06,1.733174849135925e-05,2.435633760223226e-06,2.989115209439713e-05,2.2451604197084052e-06,1.0808369218071403e-06
319,2.140906183891335e-06,1.738153503351698e-06,2.3092718290333712e-06,3.111424151119883e-06,4.697018508351336e-06,3.317182073597085e-06,2.719093709940704e-06,1.963087437422859e-06,6.9098611960277005e-06,1.6856476074850547e-06,1.2431089740924184e-06,1.9568021812563044e-05,2.44766810865901e-06,2.984218233942348e-05,2.2605324055348525e-06,1.0723628586288657e-06
320,2.0974588421987353e-06,1.7218154581263266e-06,2.200521764791928e-06,3.056460413593482e-06,4.645889066851894e-06,3.166885232675221e-06,2.799528518319638e-06,2.121532675098764e-06,6.912463229326981e-06,1.6736558296410633e-06,1.2391234586153858e-06,2.194866947286733e-05,2.4573530070458663e-06,2.967762588593466e-05,2.275469049675862e-06,1.0687873120923744e-06
321,2.061191754348201e-06,1.7058123195558073e-06,2.094399138233731e-06,3.000648676598633e-06,4.586933611240677e-06,3.0155451649987684e-06,2.8790398950983162e-06,2.2988170845742914e-06,6.912099129376423e-06,1.6681623133578845e-06,1.238154734936127e-06,2.4466041855233837e-05,2.4647643270420645e-06,2.9388845032694247e-05,2.289597891732114e-06,1.0701422900163012e-06
322,2.03234632631905e-06,1.6899362103650813e-06,1.990919107482253e-06,2.946012266168015e-06,4.520093334688503e-06,2.8658065740254445e-06,2.955942999667986e-06,2.49397257690766e-06,6.906040725757904e-06,1.6684857383749048e-06,1.240897063504039e-06,2.711002289622877e-05,2.469845403969968e-06,2.8972875218430373e-05,2.30291057048008e-06,1.0764763126620331e-06
323,2.0110954721963734e-06,1.6738878986588643e-06,1.8898644274626017e-06,2.8941202837742867e-06,4.445258735926228e-06,2.719700038148465e-06,3.028130235594401e-06,2.705884223118502e-06,6.892263840920036e-06,1.6737396738046692e-06,1.2479188224742608e-06,2.986788984403582e-05,2.472488690131069e-06,2.8433889011610164e-05,2.3158287724500677e-06,1.0877669261522329e-06
324,1.9974875953087057e-06,1.6572602564991491e-06,1.7909937184789334e-06,2.8461396345476624e-06,4.3622926152043075e-06,2.57872792365356e-06,3.0932274806072164e-06,2.933354716335403e-06,6.869143265622203e-06,1.682813741087196e-06,1.2595881186496818e-06,3.2724088380107846e-05,2.472565010343395e-06,2.778249220683584e-05,2.328974810628523e-06,1.1038265518800505e-06
325,1.9912962465519665e-06,1.6397047011674687e-06,1.694258711086087e-06,2.802933909391263e-06,4.271410906565809e-06,2.4440396797311913e-06,3.148997888370256e-06,3.1750563178210656e-06,6.835003622521762e-06,1.69448276369488e-06,1.2760185008759652e-06,3.5660016149525545e-05,2.4697900059365246e-06,2.7033565947470024e-05,2.342869610943967e-06,1.124252465462853e-06
326,1.991947407532667e-06,1.6211500823343123e-06,1.5999073941725987e-06,2.7650889484347047e-06,4.1734471736248575e-06,2.3165842037279435e-06,3.193864244450532e-06,3.4293885461748643e-06,6.787647766482293e-06,1.7076374108114033e-06,1.2970486278823912e-06,3.865384503539669e-05,2.463603314902567e-06,2.6203259243964555e-05,2.357776541207881e-06,1.148406238038587e-06
327,1.998593828226212e-06,1.6018051351769528e-06,1.5084464338754077e-06,2.7329148808524204e-06,4.069736973273129e-06,2.197135074751465e-06,3.227312461513465e-06,3.6942829000130707e-06,6.724250748245036e-06,1.7214986298610248e-06,1.3222812999590048e-06,4.168016079520287e-05,2.45329072430444e-06,2.53062481428392e-05,2.373633498596524e-06,1.175442463156535e-06
328,2.0101908114140213e-06,1.5819528145415198e-06,1.4205156858969181e-06,2.706470896012565e-06,3.961814327908951e-06,2.086217465165756e-06,3.2499593185465372e-06,3.967076659505065e-06,6.641876953973041e-06,1.7356515534462202e-06,1.3511917384696139e-06,4.4709298413936426e-05,2.4382356150735533e-06,2.435515238731963e-05,2.389985965560763e-06,1.2044503322403014e-06
